rsi_period,oversold,overbought,min_adx,stop_loss_atr,take_profit_atr,total_return,sharpe_ratio,max_drawdown,win_rate,total_trades
10,35,65,15,1.5,4.0,3424.990097232299,4.123728743651837,12.410526983082233,64.58333333333334,720
10,35,75,15,1.5,4.0,12960.554300220425,4.0546302618827035,14.947335074291088,59.424920127795524,939
10,35,70,15,1.5,4.0,5816.80639381329,4.020093465243748,13.86648107550742,63.84248210023866,838
14,35,70,15,1.5,4.0,9540.010268021808,3.9929461394297827,15.260784238773766,58.78552971576227,774
14,30,70,15,1.5,4.0,4911.262859784192,3.89611998037493,12.863987045286512,61.258278145695364,604
10,30,75,15,1.5,4.0,7226.879049004042,3.864418497161464,14.777473355985585,60.75471698113207,795
10,35,65,15,1.5,3.0,2532.183542373722,3.8535410373174868,12.41052698308225,64.16666666666667,720
10,30,65,15,1.5,4.0,1819.3562690529423,3.8410742225816827,12.41052698308226,64.80836236933798,574
10,40,70,15,1.5,4.0,5818.927016116184,3.8311880754479843,13.866481075507414,61.99376947040498,963
10,40,75,15,1.5,4.0,11216.014132736613,3.7909532155051973,17.63450518860104,57.714285714285715,1050
10,35,75,15,2.0,4.0,11416.509234926063,3.7747761276199268,17.886771178436568,63.43457943925234,856
10,35,70,15,2.0,4.0,5448.302652982143,3.7630062454617392,16.67911922171158,66.7948717948718,780
10,35,65,15,2.0,4.0,2762.7331112923102,3.7577460584708007,16.175671464227843,66.61786237188872,683
14,35,70,15,1.5,3.0,6405.006739995836,3.73158845021309,15.260784238773766,59.131545338441896,783
14,30,70,15,1.5,3.0,3820.0426109957507,3.730033622280461,12.86398704528651,61.37479541734861,611
10,30,65,15,1.5,3.0,1615.479698543778,3.722126181908153,12.41052698308226,64.63414634146342,574
10,35,65,20,1.5,4.0,1253.1872738729633,3.7078988842849046,6.946058239380173,64.25619834710744,484
10,35,70,15,1.5,3.0,3866.169899675646,3.697266815989518,13.866481075507412,63.5280095351609,839
14,30,70,15,2.0,4.0,4718.010515682445,3.6855461779487793,16.674197781077876,65.14598540145985,548
10,35,65,15,1.5,2.5,2092.582863083767,3.6783184858299918,12.410526983082237,64.02777777777777,720
10,35,75,20,1.5,4.0,4797.4753668754465,3.675274699122883,13.866481075507398,59.686609686609685,702
14,30,70,20,1.5,4.0,2777.85725504017,3.675129415345855,12.863987045286542,62.57796257796257,481
10,40,65,15,1.5,4.0,2738.8110249643637,3.6691014014712717,12.410526983082265,61.64542294322132,863
18,35,65,15,1.5,4.0,4715.6749257772535,3.667747876727358,13.866481075507409,60.51364365971108,623
10,35,70,20,1.5,4.0,2054.7567292547915,3.636446119224732,13.866481075507412,64.8506151142355,569
10,30,65,15,1.5,2.5,1468.3270887289568,3.636387262917931,12.41052698308226,64.63414634146342,574
14,35,70,15,2.0,4.0,7350.20203047427,3.625026717917535,14.937886698541469,62.18130311614731,706
10,35,75,15,1.5,3.0,6869.666601863142,3.622204593298017,14.947335074291013,59.32203389830508,944
10,30,75,15,2.0,4.0,6594.945997604363,3.61538996952604,15.745370000270164,65.0904033379694,719
14,30,65,15,1.5,4.0,1693.9623465272903,3.601980648055554,12.863987045286517,64.46280991735537,484
14,40,70,15,1.5,4.0,8103.075301636652,3.598129303561426,19.905189712724265,57.02947845804989,882
14,30,70,20,1.5,3.0,2431.357611354658,3.5980291379667597,12.863987045286498,62.757201646090536,486
10,35,75,20,2.0,4.0,5150.482842563415,3.5957326374339424,13.401975197659683,63.66459627329193,644
14,40,70,20,1.5,4.0,3899.8309894790495,3.5855599638047186,13.70373148258344,58.610271903323266,662
14,35,65,15,1.5,4.0,2753.0705679735847,3.5801646599869694,15.276637530563075,61.261261261261254,666
18,40,65,15,1.5,4.0,6129.518086726222,3.5763890569553594,13.917671193364779,59.24932975871313,746
14,30,70,20,2.0,4.0,2867.5719106805745,3.555701632758205,13.786252762971998,66.36155606407323,437
14,35,70,20,1.5,4.0,3492.182716128357,3.5540737009672503,13.630956608992964,59.729272419627755,591
14,30,70,15,2.0,3.0,3691.537574106784,3.540163192520212,17.251438926543162,65.82278481012658,553
10,40,75,15,2.0,4.0,10282.483578557149,3.5395817121494537,18.163132006790086,62.381454162276086,949
10,35,65,15,2.5,4.0,2460.5653503284443,3.537051118906466,16.20430068690743,67.78625954198473,655
14,30,70,20,2.0,3.0,2659.012512767407,3.5370228026364785,13.786252762972001,66.89342403628117,441
18,35,70,15,1.5,4.0,9248.893181749077,3.5349230643884746,14.285723183865025,54.84330484330484,702
10,35,70,20,2.0,4.0,2171.011548609253,3.5326940647934726,10.634263840232334,68.04511278195488,532
10,30,65,15,2.0,4.0,1577.0971530178579,3.5318126672107355,14.008647950234398,67.21611721611723,546
10,35,65,20,2.0,4.0,1205.901410561269,3.5318026596692325,8.078673024343328,66.8859649122807,456
10,30,65,20,1.5,4.0,886.201821257897,3.5313103816362594,6.6171771803011925,65.52631578947368,380
10,40,70,15,1.5,3.0,3919.797305684196,3.5292905106980044,13.866481075507405,61.72199170124482,964
10,40,70,15,2.0,4.0,5309.441648936407,3.5270468790538274,15.926761706182207,65.73033707865169,890
10,30,75,15,1.5,3.0,4517.156002312606,3.5219493892020126,14.777473355985471,60.54931335830213,801
10,35,65,15,2.0,3.0,2098.6227943424196,3.5172713426659894,16.175671464227843,66.17862371888727,683
14,35,70,20,2.0,4.0,3860.939212862384,3.5058466792118996,19.208616801712207,63.36448598130842,535
10,30,65,20,2.0,4.0,945.2289723037122,3.4873601763720434,8.078673024343333,68.33333333333333,360
10,30,70,15,1.5,4.0,2269.453610057245,3.476529698767568,13.866481075507394,63.271162123385935,697
10,35,65,20,1.5,3.0,986.8681182131676,3.4685246391405697,7.130848765486196,63.63636363636363,484
14,30,65,15,1.5,3.0,1481.2664138388288,3.4682112626583104,12.863987045286496,64.40329218106996,486
14,35,75,15,1.5,4.0,11524.256498701749,3.4656712164898904,15.265642937446048,52.13270142180095,844
10,30,65,20,1.5,3.0,825.1055233478136,3.451229359284688,6.6171771803011525,65.26315789473685,380
10,40,65,15,1.5,3.0,2138.6161074977513,3.451153162225662,12.41052698308225,61.29779837775203,863
14,40,70,20,2.0,4.0,3849.9027108884243,3.440572940179763,21.3272540425474,62.04620462046204,606
10,35,70,15,2.0,3.0,3569.771169898691,3.439897539639183,16.67911922171158,66.45326504481433,781
10,30,75,20,1.5,4.0,2890.0232204051736,3.4351278780972794,13.866481075507409,59.96592844974447,587
10,30,65,15,2.0,3.0,1423.5589831426742,3.4320659360640784,14.008647950234398,67.03296703296702,546
10,30,65,15,2.5,4.0,1555.5681145244803,3.426353806892896,14.008647950234401,68.77394636015326,522
18,40,70,15,1.5,4.0,10167.890714060086,3.425950980759317,14.614981737283555,52.867830423940156,802
14,30,75,20,1.5,4.0,6289.203213485788,3.422345997944723,13.866481075507398,54.83870967741935,620
10,35,70,20,1.5,3.0,1606.2026987710592,3.4156736762867617,13.866481075507412,64.3859649122807,570
14,35,70,20,2.0,3.0,3276.5128465271096,3.4151690463571067,19.2086168017122,64.02214022140221,542
18,35,65,15,2.0,4.0,4056.0433328538174,3.4147375020605293,13.072493537951758,63.6998254799302,573
14,30,75,15,1.5,4.0,7827.661116733609,3.4132455422931196,16.666174452466777,53.221288515406165,714
14,35,70,20,1.5,3.0,2821.9640135662657,3.40991260756534,13.640404961181844,60.03344481605352,598
10,30,65,20,2.0,3.0,880.4758768423051,3.409503099950183,8.078673024343287,68.05555555555556,360
10,35,70,15,1.5,2.5,2717.6201114211676,3.4068216670173728,13.866481075507403,63.17044100119189,839
14,40,70,20,1.5,3.0,2965.6075973477687,3.391050671568401,13.703731482583425,58.507462686567166,670
10,30,65,20,2.5,4.0,947.4655476465487,3.3888232184291684,9.593360074681499,70.31700288184439,347
10,30,75,20,2.0,4.0,3135.641291756787,3.383436860628633,13.401975197659752,64.17910447761194,536
10,35,65,20,2.5,4.0,1189.2197558848552,3.381006754892868,9.593360074681485,68.73563218390805,435
14,30,75,25,1.5,4.0,3454.5602891564727,3.3784331724056793,13.427517912313924,59.529411764705884,425
14,35,70,15,2.0,3.0,4876.818747373396,3.37131031345533,15.271566051551739,62.849162011173185,716
14,35,65,15,1.5,3.0,2160.1617727493854,3.364335639024221,15.276637530563072,61.285500747384155,669
10,30,70,15,2.0,4.0,2468.9309172352673,3.361263006875864,14.008647950234392,67.18506998444789,643
18,30,65,15,1.5,4.0,2172.985120666187,3.3586309319156658,14.247137133405252,62.272727272727266,440
18,35,65,15,1.5,3.0,3058.6227000161994,3.354806547615926,13.866481075507389,60.8,625
14,30,65,20,1.5,4.0,1019.121671003189,3.35444253856828,12.863987045286546,65.76819407008087,371
18,30,70,15,1.5,4.0,4729.923407991427,3.3537343625785927,15.345991761335998,57.55258126195029,523
10,30,65,20,1.5,2.5,745.7506395620746,3.3529522108302854,6.617177180301076,65.26315789473685,380
10,35,75,15,2.0,3.0,6062.89404180073,3.3486601914413203,17.886771178436536,63.13953488372093,860
18,40,70,20,1.5,4.0,6654.164540717288,3.3435831555635747,19.003240425607583,53.91432791728212,677
18,40,65,20,2.0,4.0,3110.0635838393137,3.3364100291825562,12.821283792528954,62.59541984732825,524
14,30,65,15,2.0,4.0,1514.6530443624308,3.3284606211372783,13.452305385334467,68.58407079646017,452
18,35,70,20,1.5,4.0,5529.110612296253,3.3272388933301786,19.003240425607572,54.515050167224075,598
10,35,70,20,2.0,3.0,1698.2568429046783,3.3187029761294013,10.634263840232334,67.54221388367729,533
18,30,65,15,2.0,4.0,2313.1868167364214,3.3172175538050586,12.37233543796216,65.92039800995025,402
10,30,70,20,2.0,4.0,1401.413625270081,3.311399881158456,10.634263840232336,68.11926605504587,436
18,40,65,15,2.0,4.0,5030.236192649421,3.3100500646718345,14.791355790030744,62.00873362445415,687
10,40,65,15,2.0,4.0,2273.845754658562,3.3068186626753375,15.036082593003105,64.50428396572828,817
10,40,75,20,1.5,4.0,3626.6436207832407,3.2984524918096345,14.64081991117108,57.639751552795026,805
10,35,65,20,2.0,3.0,948.888528641231,3.29551310620181,9.444134891514363,66.22807017543859,456
18,40,65,20,1.5,4.0,2679.5630140319745,3.292440233137167,14.405363330373513,59.8939929328622,566
18,40,70,20,2.0,4.0,7000.703522680775,3.2887948499571653,17.16403046337154,58.443708609271525,604
10,35,65,15,2.0,2.5,1621.7740375351789,3.284144181609105,16.17567146422783,65.7393850658858,683
14,40,65,15,1.5,4.0,2332.221030909105,3.281892646357848,16.018439306554914,59.75,800
14,35,65,15,2.0,4.0,2338.982894835714,3.281086666305936,14.844252537324499,65.4281098546042,619
10,30,65,15,2.5,3.0,1328.0030308156706,3.279173631340453,14.008647950234401,68.39080459770115,522
10,30,65,15,2.0,2.5,1206.5010630278132,3.2780790240814195,14.008647950234396,66.66666666666666,546
14,30,65,20,1.5,3.0,944.4718220747566,3.2748909963378536,12.863987045286501,65.86021505376344,372
14,30,75,20,2.0,4.0,6132.434005669813,3.2745052664500554,14.874387591034575,58.65209471766849,549
10,30,70,15,1.5,3.0,1788.7574574713317,3.274499346427135,13.866481075507394,63.180515759312314,698
10,35,65,20,1.5,2.5,816.4387199144554,3.2718432493925267,7.130848765486119,63.42975206611571,484
10,30,75,15,2.0,3.0,4109.3121500194375,3.2718125958328046,15.745370000270151,64.73029045643153,723
10,40,75,15,1.5,3.0,5222.870584390712,3.270390913300578,17.634505188601096,57.44075829383887,1055
14,30,70,15,1.5,2.5,2221.361274467502,3.269879149529851,12.863987045286557,60.71428571428571,616
14,40,75,15,1.5,4.0,11435.385625450306,3.2676684376720213,17.15972247368199,50.58448459086079,941
14,35,75,20,1.5,4.0,6592.19529184301,3.265614176640305,13.86648107550742,52.73972602739726,730
10,35,70,15,2.5,4.0,3450.175781609417,3.2632511966356983,16.70757649767588,68.70748299319727,735
10,30,70,20,1.5,4.0,1152.687428793166,3.2626198148713024,13.866481075507414,64.3312101910828,471
10,30,65,20,2.0,2.5,758.6453946076902,3.261813628724316,8.07867302434329,67.77777777777779,360
10,35,75,20,1.5,3.0,2751.1339117608545,3.2613781818674363,13.866481075507409,59.54738330975955,707
10,30,65,20,2.5,3.0,832.9239584140548,3.2570448669642365,9.59336007468156,69.7406340057637,347
14,40,70,20,2.0,3.0,2919.129925495382,3.256242798175826,21.32725404254731,62.091503267973856,612
10,35,65,15,2.5,3.0,1760.0895759187313,3.2498219722365564,16.20430068690743,67.17557251908397,655
14,35,65,20,1.5,4.0,1267.4816788353069,3.2479802538808586,13.630956608992983,62.60504201680672,476
18,30,70,20,1.5,4.0,3534.784800390499,3.243355622817366,13.866481075507384,57.88336933045356,463
14,35,75,25,1.5,4.0,3532.5435816641607,3.242269283583096,13.427517912313942,57.171314741035864,502
14,30,65,20,2.0,4.0,1029.9771160291905,3.2390710424378226,13.172830702694549,69.36416184971098,346
14,30,70,25,1.5,4.0,1258.9857079458977,3.2367557951106583,12.966948778039928,65.80645161290323,310
10,40,65,15,1.5,2.5,1664.3487935737564,3.2356387482078675,12.48594132822821,60.8342989571263,863
14,35,65,20,2.0,4.0,1416.8639525257581,3.2333798506836438,13.937081830278652,66.74259681093395,439
14,30,75,15,2.0,4.0,7239.516872131236,3.2332078263893016,18.52407849358362,57.27848101265823,632
18,35,65,20,1.5,4.0,2231.8833192191355,3.231758305872718,14.405363330373493,59.1919191919192,495
10,40,70,20,1.5,4.0,1649.8256306689807,3.2315300144965238,13.866481075507423,62.4251497005988,668
18,40,65,15,1.5,3.0,3704.6599792792977,3.2275344383747644,14.144552946857864,59.599999999999994,750
14,30,65,15,1.5,2.5,1133.747005532182,3.2259687523023444,12.86398704528651,64.21267893660531,489
10,40,75,20,2.0,4.0,3950.731110062408,3.223246002681429,13.685882097303997,62.158469945355186,732
14,40,70,15,1.5,3.0,4566.413414079928,3.2231825689787383,19.485756135913423,56.74470457079153,897
14,30,65,15,2.0,3.0,1343.1107386650608,3.212797231654727,13.452305385334414,68.58407079646017,452
10,40,70,15,2.0,3.0,3449.9031071126174,3.210609038616847,15.926761706182244,65.4320987654321,891
14,30,75,25,2.0,4.0,3163.390845831063,3.2102671379229553,14.874387591034585,62.04188481675392,382
18,30,65,15,2.0,3.0,1986.3578190601274,3.207639849771035,12.372335437962152,66.0891089108911,404
10,35,70,20,2.5,4.0,1773.457086257692,3.206058522288436,17.718842374526627,70.14028056112225,499
10,30,70,20,2.0,3.0,1249.7916445036003,3.2053970046772915,10.634263840232329,67.96338672768879,437
14,30,70,20,1.5,2.5,1596.756483268674,3.2046027957424643,12.863987045286523,61.91446028513238,491
18,35,65,15,2.0,3.0,2993.9123980455383,3.201218503702588,13.072493537951809,64.12478336221838,577
14,30,70,20,2.5,3.0,2122.3582004829927,3.199832968846739,16.609781657981905,68.20388349514563,412
10,35,70,25,1.5,4.0,799.7283917036551,3.1990600996955934,10.475229670491004,64.05405405405405,370
10,40,70,15,1.5,2.5,2576.1846213302592,3.194848035759955,13.866481075507403,60.99585062240664,964
14,30,70,15,2.5,4.0,3159.203638841116,3.1917879719369022,21.27585870322088,66.015625,512
14,30,70,25,1.5,3.0,1177.868277248375,3.191296389439049,12.966948778039963,65.60509554140127,314
10,35,75,25,1.5,4.0,1571.7967337819964,3.18735334857961,13.918730781306387,60.560344827586206,464
18,40,65,20,2.0,3.0,2501.228767032197,3.187096707405951,13.29163348603282,63.32703213610586,529
10,35,75,20,2.0,3.0,2958.814572847253,3.184669459507416,13.401975197659716,63.27160493827161,648
14,30,70,20,2.0,2.5,1781.7625983517664,3.1781819753754754,13.786252762972003,65.77181208053692,447
14,35,70,15,1.5,2.5,3113.177293968943,3.1768372695016276,15.26078423877373,58.91276864728192,791
14,40,75,20,1.5,4.0,6382.201258439126,3.168986274570776,15.455262420924825,51.19496855345912,795
14,30,70,20,2.5,4.0,2213.1425689997013,3.1674398193913444,21.27585870322087,67.72616136919315,409
18,40,70,15,2.0,4.0,8023.102614902478,3.16279138639157,18.12973267920648,56.20641562064156,717
18,35,65,20,2.0,4.0,2272.2428547699687,3.1605817424964098,12.372335437962152,61.87363834422658,459
14,30,65,20,2.0,3.0,953.2389736476441,3.1578143715545273,13.17283070269449,69.36416184971098,346
18,30,65,15,1.5,3.0,1658.0747406732391,3.155775271315575,14.247137133405255,62.272727272727266,440
10,30,70,20,1.5,3.0,1026.1833488793304,3.1514709789816076,13.866481075507414,64.19491525423729,472
14,30,70,15,2.0,2.5,2281.1609837216997,3.151405276203876,18.28048965302297,64.76868327402136,562
10,30,65,15,2.5,2.5,1151.9687585989882,3.1486932311731923,14.008647950234398,68.00766283524904,522
10,40,70,20,2.0,4.0,1800.077923495594,3.146466742318801,11.451329896272611,66.39871382636656,622
10,30,70,15,2.0,3.0,1896.8008796419138,3.145335564515243,14.008647950234392,67.08074534161491,644
18,35,70,15,2.0,4.0,6322.631776541098,3.1440887911716002,15.665959876611293,58.30670926517571,626
14,35,70,25,1.5,4.0,1393.2244100465468,3.142555543070497,12.966948778039969,62.634408602150536,372
10,30,75,15,1.5,2.5,2693.7440998869797,3.13814944206747,14.777473355985538,60.19777503090234,809
10,30,75,20,1.5,3.0,1976.1833334111766,3.1367069511447654,13.866481075507417,59.696458684654296,593
14,30,70,25,2.0,3.0,1257.58896826153,3.136679779566188,13.275427499332142,68.66197183098592,284
10,30,65,20,2.5,2.5,735.2895449958016,3.1353520826507144,9.593360074681483,69.45244956772333,347
14,35,65,20,1.5,3.0,1122.1645339721601,3.1309744523295193,13.630956608992975,62.76150627615063,478
14,35,75,20,2.0,4.0,6436.764954126423,3.130127322120371,16.727547029597922,56.723338485316845,647
14,30,65,20,1.5,2.5,811.1258791142028,3.125501680319787,12.86398704528651,65.60000000000001,375
10,35,70,15,2.0,2.5,2396.1890799990933,3.1251818449250397,16.679119221711623,66.06914212548016,781
14,40,65,20,1.5,4.0,1216.0742962835902,3.1189838490624675,15.039832601853112,60.54054054054055,555
14,30,65,25,1.5,4.0,589.5798744878867,3.1182770832182105,12.966278137465267,69.86899563318777,229
14,35,65,20,2.0,3.0,1253.9188707044436,3.1174441430384126,13.937081830278608,66.81818181818183,440
18,40,70,25,1.5,4.0,3081.8353770557947,3.1165694894951184,15.092666870899867,60.45977011494252,435
18,35,70,25,1.5,4.0,2788.869954453159,3.1145421905504644,15.09266687089991,61.43958868894601,389
10,40,70,25,1.5,4.0,876.3417228151383,3.11383963375187,10.47522967049099,64.20323325635104,433
14,30,70,25,2.0,4.0,1261.591284121274,3.11206276708345,13.275427499332151,68.32740213523132,281
14,35,70,15,2.5,4.0,4542.398919034292,3.1087895447733875,22.36727653958438,63.70597243491577,653
10,40,65,15,2.5,4.0,1990.020472130169,3.106087265422154,14.652828754069642,65.64885496183206,786
10,40,65,20,1.5,4.0,906.0896433135453,3.1038649962058242,11.463851090068648,61.6554054054054,592
10,35,75,25,2.0,4.0,1612.1500432664232,3.1016610269043365,14.223836019867624,65.4292343387471,431
18,30,70,15,2.0,4.0,3893.453038198547,3.0980462046972255,15.665959876611252,61.587982832618025,466
14,30,65,25,1.5,3.0,577.9214818987172,3.097334021983347,12.966278137465267,70.0,230
14,35,65,15,1.5,2.5,1571.998571860735,3.0971135434009187,15.276637530563075,61.16071428571429,672
10,35,65,20,2.5,3.0,883.1661598520333,3.095942786766187,9.5933600746815,67.81609195402298,435
10,35,75,15,1.5,2.5,3298.39845626526,3.0927540710946846,14.77747335598554,58.78023133543638,951
14,35,65,15,2.0,3.0,1873.7057413996765,3.090863322507833,14.844252537324493,65.48387096774194,620
10,40,65,15,2.0,3.0,1762.2632244225479,3.0898314923475363,15.036082593003105,64.13708690330478,817
10,30,75,20,2.0,3.0,2161.2739887462208,3.0887800220548947,13.401975197659672,63.70370370370371,540
10,35,70,20,1.5,2.5,1122.377611022768,3.082688406644776,13.866481075507425,63.68421052631579,570
14,40,70,25,1.5,4.0,1372.210568725107,3.0796528976661874,13.040838044985067,61.35265700483091,414
10,30,70,15,1.5,2.5,1421.9859215838487,3.077697899847264,13.866481075507394,62.80400572246065,699
18,35,65,15,1.5,2.5,2121.0067323168987,3.0769224892832288,13.866481075507403,60.094637223974765,634
14,30,70,15,2.5,3.0,2495.8313484796217,3.0743443453971184,16.60978165798191,66.27906976744185,516
18,30,65,20,2.0,4.0,1531.2166431489948,3.073922299473318,13.692282695630325,64.1399416909621,343
18,35,70,15,1.5,3.0,4228.385887339519,3.06713950267805,14.285723183865104,55.124653739612185,722
14,35,75,15,2.0,4.0,7550.6956130463495,3.065120992447707,19.784361665017716,55.36423841059602,755
10,30,70,20,2.5,4.0,1194.4853782817415,3.059575845116357,14.80853357337246,70.77294685990339,414
10,35,65,20,2.0,2.5,749.1177813369674,3.0557326559846394,9.444134891514373,65.78947368421053,456
10,40,70,20,1.5,3.0,1342.977773132631,3.054621262136136,13.866481075507423,62.03288490284006,669
18,35,70,20,2.0,4.0,4382.573315944543,3.0544450246862116,16.309821410720183,57.80669144981413,538
18,40,65,15,2.0,3.0,3429.7657748343063,3.0540563262077733,14.791355790030769,62.48196248196248,693
18,35,65,25,1.5,4.0,1188.0074386356243,3.0540102381143477,15.092666870899862,66.3265306122449,294
14,40,70,20,2.5,4.0,2946.851369776842,3.048843820035822,22.034536516139656,64.33691756272401,558
14,30,65,20,2.5,3.0,954.7831246777546,3.040742507709604,16.60978165798195,69.90881458966565,329
18,30,70,20,2.0,4.0,3118.1225570108504,3.0389604377772637,16.309821410720176,62.13592233009708,412
14,30,75,25,2.0,3.0,2380.3994391292335,3.036912434956776,13.774944050478105,63.42710997442455,391
14,35,70,25,1.5,3.0,1222.1626237674402,3.033728839646011,12.966948778039997,62.59946949602122,377
14,30,75,25,1.5,3.0,2081.7130556532356,3.0331817500979326,15.827323101689709,59.06040268456376,447
18,35,65,20,2.0,3.0,1892.555072667264,3.031927415981598,12.717000244816075,62.634989200863934,463
10,40,75,15,2.0,3.0,4748.157741972689,3.0280899044681666,18.163132006790043,61.9348054679285,951
18,35,75,20,1.5,4.0,8356.521294161366,3.0272013466564736,19.91620027535394,49.18276374442793,673
18,30,65,20,1.5,4.0,1346.7902493057672,3.0254751002580575,15.066411206550415,61.06666666666667,375
10,35,65,15,2.5,2.5,1359.0059475605972,3.0245362616339495,16.204300686907455,66.41221374045801,655
18,35,75,15,1.5,4.0,9232.60196707266,3.024500060671767,19.916200275353912,47.99465240641711,748
18,40,65,25,1.5,4.0,1226.461113926911,3.023827340004596,15.092666870899901,64.6525679758308,331
10,35,75,20,2.5,4.0,3091.272441795763,3.023604245491773,22.531468881941944,65.993265993266,594
18,40,65,20,1.5,3.0,1858.5914746796338,3.023119295769346,14.405363330373469,60.45694200351493,569
14,30,65,25,1.5,2.5,534.0319939635438,3.022953506880528,12.9662781374653,69.95708154506438,233
10,35,75,15,2.5,4.0,4948.583915043982,3.021305171705092,24.36329961911722,65.57377049180327,793
14,30,75,20,1.5,3.0,3286.0547734580214,3.0137990701472788,15.827323101689805,54.361370716510905,642
10,35,70,25,2.0,4.0,764.0226081090628,3.0127803512528875,10.634263840232327,67.72334293948127,347
18,35,65,25,2.0,3.0,1114.6784937810396,3.010021221595519,11.410572941171914,68.4981684981685,273
10,30,70,15,2.5,4.0,1844.399378022828,3.0084198629517322,14.80853357337244,69.37086092715232,604
18,30,75,15,1.5,4.0,6487.2299230734825,3.007955652752999,19.916200275353944,50.24875621890548,603
18,40,65,25,2.0,4.0,1273.0191067753067,3.005982069274734,15.243498503077586,65.79804560260585,307
14,35,75,25,2.0,4.0,3000.8990754965707,3.0054000307457267,14.874387591034532,59.46547884187082,449
10,40,70,15,2.5,4.0,3124.9629768873106,3.005126717170873,15.547525527919321,66.54804270462633,843
18,30,65,20,2.0,3.0,1384.893280401423,3.0045339336551558,13.692282695630285,64.6376811594203,345
18,35,65,25,2.0,4.0,1195.263452245619,3.003195796354977,15.243498503077625,68.26568265682657,271
14,40,65,20,2.0,4.0,1208.089863502107,2.99632007940151,14.722537437521385,64.00778210116731,514
14,40,70,15,2.0,4.0,4329.176545602615,2.9938869039513056,27.55900960391684,59.48275862068966,812
14,30,65,25,2.0,4.0,582.4724022602335,2.99377000360732,13.274759235766464,73.11320754716981,212
14,35,70,20,2.0,2.5,1951.7894060826147,2.991897745104487,19.208616801712193,63.58695652173913,552
14,35,70,20,2.5,4.0,2485.1057996241234,2.9904688210493453,21.968787129208586,65.0,500
14,30,65,15,2.0,2.5,1035.2922605268761,2.9901782640443964,13.452305385334409,68.05251641137856,457
18,40,65,25,2.0,3.0,1159.0708489510628,2.9876702069287493,11.367280079289001,65.9090909090909,308
14,40,75,20,2.0,4.0,5697.07398122535,2.9872093143416882,21.599071271472123,54.7887323943662,710
14,30,65,20,2.0,2.5,797.2588144891001,2.986309955837005,13.172830702694535,68.76790830945558,349
18,35,65,20,1.5,3.0,1600.1998729870384,2.984118063466467,14.405363330373467,59.758551307847085,497
10,30,75,15,2.5,4.0,3481.722005719372,2.9830433350706644,24.36329961911723,66.71664167916042,667
18,30,75,20,1.5,4.0,5874.201509995317,2.980082843974794,19.91620027535393,51.15864527629233,561
18,35,65,25,1.5,3.0,1066.1936522130236,2.9771019703585027,16.230832537696852,66.55290102389078,293
10,40,70,20,2.0,3.0,1466.8819582760132,2.9768044247073484,11.451329896272611,65.97110754414125,623
10,35,70,20,2.0,2.5,1158.2933777440066,2.976243141416277,10.634263840232299,66.79174484052533,533
18,30,65,15,1.5,2.5,1327.3890728838937,2.9727727187144724,13.866481075507412,62.19239373601789,447
10,40,65,20,2.0,4.0,926.6346000795162,2.9711355158014334,12.930040007711979,65.29516994633273,559
14,30,75,15,1.5,3.0,3766.869566359312,2.970565583294142,16.7831692536346,53.2258064516129,744
14,30,65,25,2.0,3.0,570.0662787810639,2.9683490517877655,13.274759235766464,73.11320754716981,212
14,40,70,25,2.0,4.0,1403.7608234657073,2.96739875488663,13.349054874199865,64.56692913385827,381
10,40,70,25,2.0,4.0,877.7093884490686,2.9661267986498645,10.836143295643838,67.57425742574257,404
18,30,70,25,1.5,4.0,1910.429271589775,2.961792805158516,15.092666870899885,63.52201257861635,318
18,40,75,20,1.5,4.0,8792.358822618511,2.961760188661448,19.916200275353894,47.79706275033378,749
10,35,65,25,1.5,4.0,457.39521516118344,2.961451117918094,8.25689028237144,61.66134185303515,313
14,40,65,15,1.5,3.0,1596.1948113185035,2.9600697618038425,16.018439306554846,59.079601990049746,804
14,35,70,20,2.5,3.0,2209.2081427625176,2.9593901982537965,17.343780807247626,65.68047337278107,507
18,40,70,25,2.0,4.0,2721.702570296633,2.9576683292472525,15.823118585163549,62.78481012658228,395
14,30,65,20,2.5,4.0,951.7305175585101,2.9570992697905445,21.27585870322087,69.90881458966565,329
14,40,70,20,2.5,3.0,2413.931204995631,2.9570245232412646,17.858225649570947,64.66431095406361,566
10,35,70,20,2.5,3.0,1319.3596073238775,2.9567963120778993,17.718842374526627,69.46107784431138,501
10,30,75,20,2.5,4.0,2208.3974754158953,2.95511448238959,21.483618598481883,66.19718309859155,497
14,35,65,20,1.5,2.5,930.9501419319522,2.953910860527188,13.630956608992975,62.57796257796257,481
10,30,70,20,2.0,2.5,946.4056325992434,2.9536125270024316,10.634263840232324,67.19817767653758,439
10,30,70,20,1.5,2.5,821.8145862057607,2.9473184625360527,13.866481075507405,63.63636363636363,473
14,40,65,20,1.5,3.0,1011.9254979185235,2.945877424582989,15.039832601853098,60.0358422939068,558
10,30,75,25,1.5,4.0,971.9305005916244,2.944581617113599,13.51095179041121,61.517615176151764,369
14,30,75,20,2.0,3.0,3554.591398041925,2.943595380614017,14.381572054147313,58.92857142857143,560
14,35,70,20,1.5,2.5,1639.7025483342904,2.9431758858254717,13.640404961181856,59.60264900662252,604
14,40,65,15,2.0,4.0,1915.9207413428999,2.9429067548890946,13.815133968478069,62.634408602150536,744
10,35,70,15,2.5,3.0,2256.4781233602207,2.942553847818949,16.70757649767588,68.24966078697422,737
14,35,70,25,2.0,4.0,1305.6988189419023,2.9408675881929423,13.275427499332157,64.70588235294117,340
18,40,65,25,1.5,3.0,1087.4291967251258,2.9354710832710227,16.189895293632965,64.95468277945619,331
14,30,65,15,2.5,3.0,1159.253705319544,2.9347391370407694,16.609781657981923,68.76456876456876,429
10,40,75,25,1.5,4.0,1435.1848048429804,2.9343509116460353,14.823152877531259,58.93186003683242,543
10,35,70,25,1.5,3.0,616.431832873875,2.934286445299658,10.475229670491004,63.24324324324324,370
14,30,70,25,1.5,2.5,910.694835228811,2.9279288889434354,12.966948778039983,64.77987421383648,318
18,30,75,25,1.5,4.0,4050.6992185538097,2.927539456725153,15.092666870899892,53.89755011135857,449
10,40,70,25,1.5,3.0,725.1602390442139,2.9272866242143825,10.47522967049099,63.51039260969977,433
10,40,65,20,1.5,3.0,751.0865558122741,2.9186356074004394,11.463851090068648,61.14864864864865,592
14,30,70,25,2.0,2.5,1007.231850992709,2.9178765015725734,13.275427499332118,67.70833333333334,288
14,35,65,25,1.5,4.0,603.7681593960422,2.9101524657635878,12.966278137465222,64.82758620689654,290
14,30,65,15,2.5,4.0,1208.5739624570226,2.9100915174120328,21.275858703220873,68.76456876456876,429
14,40,75,25,1.5,4.0,2689.579980878498,2.910088441868462,14.092182618934784,54.332129963898915,554
14,35,70,15,2.0,2.5,2566.7563478819707,2.908246636546242,14.604721900508338,62.68861454046639,729
14,35,65,20,2.0,2.5,995.8494072500571,2.907021893021472,13.937081830278602,66.59142212189616,443
14,35,70,25,2.0,3.0,1221.6778091586275,2.906282926326517,13.275427499332165,65.21739130434783,345
10,30,70,20,2.5,3.0,1004.1761826867969,2.9048705575452693,14.808533573372454,70.4326923076923,416
14,40,70,25,1.5,3.0,1122.1943597674137,2.902381592634751,13.040838044985078,60.76555023923444,418
18,30,65,15,2.0,2.5,1347.8835746216043,2.8948391281721713,12.372335437962143,65.77017114914425,409
14,30,65,25,2.0,2.5,526.6853465587068,2.894275717927968,13.274759235766423,73.0232558139535,215
10,30,75,15,2.0,2.5,2424.4099675269226,2.892216915824369,15.74512931470391,64.10958904109589,730
10,30,70,15,2.0,2.5,1393.9635608053588,2.889207421708934,14.008647950234401,66.56346749226006,646
14,35,70,15,2.5,3.0,3059.666713430733,2.8883861666752138,17.76588917693992,64.1025641025641,663
14,35,75,25,1.5,3.0,2065.8949001156775,2.8812418291151864,15.827323101689808,57.14285714285714,525
18,35,65,15,2.5,4.0,2566.3058288105,2.8779866659232756,20.421987022727464,64.9812734082397,534
18,30,65,25,2.0,3.0,841.9519871768036,2.8746185246285223,11.410572941171877,69.60352422907489,227
10,35,65,20,2.5,2.5,700.6364244230228,2.873473507202449,9.59336007468151,67.1264367816092,435
18,35,75,25,1.5,4.0,4581.794766455383,2.8713956194005577,15.092666870899885,51.90114068441065,526
14,40,70,20,1.5,2.5,1580.1266236576641,2.8652492980610345,15.256711603733924,57.754800590841946,677
10,35,75,15,2.0,2.5,3001.2751565949698,2.865203876845918,17.299972221295025,62.47113163972286,866
14,35,65,25,1.5,3.0,578.3194398399224,2.8632983140862107,12.966278137465222,64.94845360824742,291
18,40,75,15,1.5,4.0,8421.385461660053,2.862088965046643,19.916200275353898,46.76434676434676,819
18,35,70,25,2.0,4.0,2205.352761902456,2.8576601733984037,15.665959876611247,63.45609065155807,353
18,30,65,20,1.5,3.0,1078.23538922387,2.857059989293801,15.066411206550361,61.33333333333333,375
14,35,75,15,1.5,3.0,4184.512385966228,2.8540618385501135,20.494450266859964,52.223489167616876,877
10,40,65,15,2.5,3.0,1467.06575752166,2.85403710481095,14.721387761968883,65.13994910941476,786
14,30,75,15,2.0,3.0,3819.853688436981,2.8537837685819993,18.479303301639803,58.0246913580247,648
18,40,75,25,1.5,4.0,5131.538078082391,2.8505903735908307,15.092666870899876,50.96322241681261,571
10,40,70,15,2.0,2.5,2132.6148066344417,2.849374066836654,15.926761706182207,64.64646464646465,891
18,30,70,15,1.5,3.0,2204.7794330249353,2.8464764449483644,15.345991761335979,56.82656826568265,542
18,30,65,25,2.0,4.0,882.3499378480585,2.84030111491676,15.243498503077605,69.33333333333334,225
18,40,65,15,1.5,2.5,2137.3450789417084,2.8361164731850357,14.405642387411092,58.30065359477125,765
14,30,70,20,2.5,2.5,1363.2647566318474,2.828890600481839,19.389576514262572,66.82692307692307,416
14,40,65,20,2.0,3.0,1004.2684801868386,2.8269295866055013,14.722537437521382,63.372093023255815,516
10,40,75,25,2.0,4.0,1448.326618371349,2.8259548985256657,14.505048493645909,63.581488933601605,497
10,40,65,25,1.5,4.0,486.3003459278818,2.8228488181304905,10.779215570104704,62.72965879265092,381
14,30,75,20,2.5,4.0,3875.966699992983,2.822432537759884,20.810922250755155,61.963190184049076,489
10,30,75,25,2.0,4.0,945.0809342227647,2.8212309810373077,13.81750235508611,65.88921282798835,343
18,30,70,25,2.0,4.0,1729.2531669386176,2.8192713503155926,15.665959876611279,67.13780918727915,283
18,35,65,25,1.5,2.5,867.6320427854105,2.8189994882977665,16.23083253769686,66.21621621621621,296
14,40,70,25,2.0,3.0,1160.1065644094047,2.818048568343293,13.349054874199846,64.32291666666666,384
10,40,65,15,2.0,2.5,1266.025713501589,2.816585850174733,15.036082593003083,63.40269277845777,817
10,30,65,25,1.5,4.0,343.5563668546879,2.816295806749726,8.150216659611113,62.28813559322034,236
14,35,65,20,2.5,3.0,1037.2667688428455,2.816203186346,17.343780807247576,66.74641148325358,418
10,40,65,20,2.5,4.0,877.5562713539109,2.812795400897008,15.397053952191936,66.29213483146067,534
18,40,70,15,1.5,3.0,3601.1281754967927,2.8113601508648816,14.285723183865004,52.962515114873035,827
14,35,65,15,2.0,2.5,1319.961831168623,2.8092448602267095,14.84425253732448,65.28,625
10,40,75,20,1.5,3.0,1883.900572498862,2.8079036564060673,14.640819911171091,57.28395061728395,810
10,30,70,25,1.5,4.0,456.75768266277083,2.8035664921989047,10.475229670491027,62.79863481228669,293
18,40,70,20,2.0,3.0,3133.796888335877,2.8022286352883303,17.164030463371553,59.0032154340836,622
18,35,65,15,2.0,2.5,1741.8839372244556,2.8007459180122405,13.67945677984917,63.35616438356164,584
18,35,70,25,1.5,3.0,1709.5942364240714,2.794723709777119,16.189895293632947,61.69154228855721,402
10,40,65,20,2.0,3.0,768.4662561297023,2.7927511026583143,12.930040007712046,64.75849731663685,559
14,35,65,15,2.5,4.0,1629.8574743267877,2.7926423627099743,22.791297358434715,65.52315608919382,583
10,30,70,15,2.5,3.0,1409.7809687878953,2.7903471957891437,15.94328210447135,69.14191419141915,606
18,35,65,25,2.0,2.5,852.0715203098107,2.789728608728228,11.410572941171903,68.36363636363636,275
14,30,65,20,2.5,2.5,735.739941559684,2.7893842348426707,16.609781657981884,69.0909090909091,330
18,40,65,20,2.0,2.5,1478.5726216512412,2.7892855503508054,13.291633486032856,61.96660482374769,539
18,35,70,20,1.5,3.0,2373.885089169947,2.787236220985701,19.003240425607576,54.72312703583062,614
14,35,65,20,2.5,4.0,1083.1053683590371,2.7855487211430696,21.968787129208632,66.66666666666666,417
10,40,70,25,2.0,3.0,726.3161287035988,2.7854864230148952,10.836143295643838,66.83168316831683,404
10,30,75,20,1.5,2.5,1273.1572937791746,2.7811520513798995,13.866481075507403,59.20398009950249,603
18,30,65,25,1.5,4.0,801.4368416559824,2.7810580634920568,15.092666870899862,66.39676113360325,247
14,35,75,20,1.5,3.0,2989.8982970124866,2.7766772341306782,15.827323101689775,52.847682119205295,755
18,40,70,20,1.5,3.0,2663.7389156981267,2.776468018847856,19.00324042560757,54.47976878612717,692
10,35,75,25,1.5,3.0,965.0027794265977,2.77542779009249,13.918730781306357,59.95717344753747,467
14,40,70,20,2.0,2.5,1614.3886792585142,2.7744360813771443,21.327254042547366,61.29032258064516,620
10,40,70,20,2.5,4.0,1347.8068042085522,2.7738504036904734,19.621502606681037,66.83760683760683,585
18,30,65,15,2.5,4.0,1500.1858439471898,2.7705274020063118,20.42198702272742,67.02127659574468,376
14,35,75,25,2.0,3.0,2054.4867969990646,2.7680043859621,14.874387591034552,60.81370449678801,467
18,40,70,25,1.5,3.0,1798.6641017705306,2.7670009615077023,17.578794493142606,60.62639821029083,447
10,40,75,20,2.0,3.0,2115.0486467215933,2.76625781369764,13.685882097303995,61.58038147138964,734
14,35,65,25,2.0,4.0,596.5555964744893,2.7645160375761315,13.274759235766487,68.65671641791045,268
14,30,65,25,2.5,3.0,517.4255148085977,2.7632906453877832,16.707675470447988,72.77227722772277,202
10,40,75,15,2.5,4.0,4084.3205521159234,2.760774903684188,24.363299619117242,64.77272727272727,880
18,35,65,20,1.5,2.5,1202.178038493302,2.7590770695834923,13.866481075507412,59.09090909090909,506
14,40,75,25,2.0,4.0,2487.25013565223,2.755628715837562,14.874387591034585,56.96969696969697,495
18,40,65,25,2.0,2.5,871.6158741763063,2.753783219145509,11.367280079289005,65.27331189710611,311
10,35,70,25,2.0,3.0,588.0001859226948,2.753427103896434,10.634263840232327,66.85878962536023,347
18,35,70,15,2.0,3.0,3221.8216053182564,2.7531001139357727,16.676720454109674,59.04173106646059,647
10,30,65,25,1.5,3.0,326.4320035707516,2.7518200733050615,8.864170617663584,61.86440677966102,236
10,35,75,20,1.5,2.5,1446.5647204400138,2.7473750164202264,13.866481075507405,58.798882681564244,716
10,30,75,20,2.5,3.0,1580.6991261306543,2.7451669972047736,16.829855738729503,65.60636182902584,503
14,35,65,25,1.5,2.5,513.0345705305502,2.7439708556643247,12.966278137465226,64.96598639455783,294
18,40,65,25,1.5,2.5,848.64216315544,2.739555057193052,18.178637574829757,63.772455089820355,334
18,30,70,20,1.5,3.0,1695.377702686535,2.738161858040225,13.866481075507373,57.44234800838575,477
18,40,65,20,1.5,2.5,1290.0565001223856,2.7376755380171596,15.100158332756658,59.106529209621996,582
18,40,65,20,2.5,4.0,1869.066871203483,2.73745573188658,20.957119432410913,64.48979591836735,490
18,30,65,25,1.5,3.0,740.89091433715,2.7329250159799323,16.23083253769687,66.66666666666666,246
10,30,75,20,2.0,2.5,1376.7426227054632,2.7303842518816914,13.401975197659702,62.77372262773723,548
18,30,70,15,2.0,3.0,2176.7048426960428,2.7286128948959676,16.676720454109713,61.53846153846154,481
14,40,65,20,1.5,2.5,794.5909533789637,2.728276969614374,17.039641573045344,59.53654188948306,561
18,30,65,20,2.0,2.5,985.7772537059654,2.723853538192226,13.692282695630272,64.57142857142857,350
14,35,65,15,2.5,3.0,1408.5856824267548,2.723166695936136,18.21504223320761,65.58219178082192,584
14,35,65,25,2.0,3.0,574.5216750996728,2.722703855573509,13.274759235766487,68.65671641791045,268
10,35,75,20,2.0,2.5,1611.8275620521033,2.717588465763694,14.138764173197336,62.29007633587786,655
10,35,65,25,2.0,4.0,409.75719189620224,2.7147677104468557,7.997065578123366,65.08474576271186,295
18,30,65,20,1.5,2.5,909.1195828711506,2.7143274460843423,13.866481075507414,61.518324607329845,382
14,35,75,20,2.0,3.0,3179.829422059074,2.712430248127057,16.727547029597908,57.24962630792228,669
10,30,70,25,1.5,3.0,420.0891415374386,2.709758847585105,10.47522967049101,62.45733788395904,293
10,30,75,15,2.5,3.0,2239.3330310325105,2.708366747640846,19.880219008629943,66.2704309063893,673
10,30,70,20,2.5,2.5,796.044037592678,2.7057110703116014,14.808533573372449,69.92840095465394,419
10,35,75,25,2.0,3.0,1007.8260138601669,2.703981405389936,14.223836019867605,64.51612903225806,434
14,40,65,20,2.5,4.0,1093.77918442526,2.7021804593987397,22.680941155504268,65.76763485477179,482
10,40,65,20,1.5,2.5,598.290854425869,2.6997335098245996,13.54783221071745,60.47297297297297,592
10,35,65,25,1.5,3.0,358.83620666296537,2.699425788624497,8.25689028237144,60.70287539936102,313
14,35,70,25,1.5,2.5,861.7551522298801,2.6976337799453485,12.966948778039985,62.04188481675392,382
10,35,75,20,2.5,3.0,1841.652131950341,2.697568682431916,19.58779911493678,65.5,600
10,30,70,25,2.0,4.0,468.49711813526415,2.693329177878622,10.634263840232324,66.66666666666666,273
10,30,75,25,1.5,3.0,730.7899234319376,2.692077887061864,14.001326412232839,60.91644204851752,371
18,30,70,20,2.0,3.0,1828.3209819907609,2.691221552027072,16.91089476975643,62.264150943396224,424
10,40,75,15,1.5,2.5,2268.7626641316806,2.6898768016100236,17.58017249496899,56.9811320754717,1060
18,35,65,15,2.5,3.0,1876.9904059687146,2.6861485667205183,16.485689422453508,65.04672897196262,535
14,30,70,15,2.5,2.5,1506.9398226989479,2.685825015149473,21.359705504778166,65.06717850287907,521
10,40,70,20,1.5,2.5,886.935868562583,2.6839973267950192,13.8664810755074,60.98654708520179,669
18,30,65,15,2.5,3.0,1272.8958147825588,2.6835728707546553,15.70529994882001,66.75531914893617,376
10,40,65,25,2.0,4.0,485.6554766074068,2.6822138249958583,9.005051125253605,66.29526462395543,359
14,40,65,20,2.5,3.0,990.2942975091562,2.6770245911044843,18.098145081886816,65.28925619834712,484
18,30,65,25,2.0,2.5,661.7436712390021,2.6766465513983717,11.410572941171909,69.43231441048034,229
18,30,75,25,2.0,4.0,3075.9810129962325,2.674326424071404,15.665959876611282,57.44125326370757,383
14,40,65,25,2.0,4.0,559.0138939320065,2.6708744235085162,14.067470059998625,66.55844155844156,308
14,40,65,15,1.5,2.5,1115.2344163384928,2.670803027025344,17.995213642490864,58.61214374225526,807
14,40,65,15,2.0,3.0,1362.4946780089322,2.668750060602824,13.815133968477985,61.93029490616622,746
14,40,70,15,1.5,2.5,2099.982365403846,2.666857829299164,19.485756135913448,56.22932745314223,907
10,35,70,25,2.5,4.0,631.6397001328437,2.6665962296765677,16.959769759071264,68.82716049382715,324
14,30,75,15,2.5,4.0,3791.215659054554,2.6662679073466005,23.091695173886027,59.43562610229277,567
10,35,75,15,2.5,3.0,2713.4332314252306,2.6626425758913164,20.31563242329287,65.20650813516896,799
18,40,65,15,2.5,4.0,2577.7277749586174,2.657493796116215,21.361761532496296,63.46456692913386,635
14,30,70,25,2.5,3.0,855.7754628332627,2.6559102987595407,16.70831728158959,68.16479400749064,267
18,40,70,25,2.0,3.0,1634.2706031228647,2.6551122318342375,15.665959876611252,63.08068459657702,409
18,35,75,20,2.0,4.0,5105.312192112293,2.6539592775713134,20.250161946331964,51.71821305841925,582
18,35,65,20,2.5,4.0,1513.8351121067876,2.653209774608584,20.42198702272743,63.78504672897196,428
18,35,70,20,2.0,3.0,2260.6225416993166,2.6463908561861937,16.91089476975643,58.30324909747292,554
18,35,65,20,2.0,2.5,1154.9718724194954,2.6459404705247684,12.717000244816113,61.833688699360344,469
10,40,70,15,2.5,3.0,1887.6271926631994,2.6431595706070996,15.547525527919332,66.15384615384615,845
18,35,70,15,2.5,4.0,3617.303349350933,2.6430550889645414,21.95672539969649,60.0,570
18,40,65,20,2.5,3.0,1555.587249112751,2.6424356828869566,16.27215031708457,64.90872210953347,493
14,30,65,15,2.5,2.5,825.8158250324423,2.63799607186999,16.609781657981877,68.13953488372093,430
14,30,65,25,2.5,2.5,459.08309985718415,2.6368232676190364,16.707675470447967,72.9064039408867,203
10,40,65,25,1.5,3.0,408.3147382007209,2.6362130148589453,10.779215570104704,61.942257217847775,381
14,40,65,25,1.5,4.0,487.5969638060436,2.6334103352129317,14.387202558943155,61.933534743202415,331
10,35,70,25,1.5,2.5,459.2594468211219,2.6322856160696193,10.475229670490979,62.972972972972975,370
10,30,65,25,1.5,2.5,289.85297422562684,2.6299079905081815,8.93872080707858,61.86440677966102,236
18,30,70,25,1.5,3.0,1189.4946690002462,2.629780814849686,16.18989529363294,63.33333333333333,330
18,40,75,25,2.0,4.0,3976.4074182306094,2.628540719406805,15.665959876611263,53.90781563126252,499
18,35,70,25,2.0,3.0,1469.483841687256,2.6281373854650516,15.665959876611254,63.934426229508205,366
10,35,70,15,2.5,2.5,1486.4828610883403,2.6240222155249127,16.707576497675927,67.57123473541384,737
18,30,70,25,2.0,3.0,1215.0447999842527,2.620381050554313,15.665959876611277,67.68707482993197,294
14,40,70,15,2.0,3.0,2403.3695414773656,2.6191035713140116,27.559009603916845,59.295261239368166,823
18,40,70,20,2.5,4.0,3232.605735456778,2.6190301440746375,22.661733480499862,60.14492753623188,552
10,40,75,20,2.5,4.0,2168.26778246538,2.618273271625096,22.89770347843233,64.64497041420118,676
18,40,75,20,2.0,4.0,5625.40394729162,2.6165897386773724,20.250161946331975,50.92592592592593,648
10,35,70,20,2.5,2.5,887.2523059606718,2.6153426101218034,19.27080514160202,68.46307385229541,501
14,35,70,25,2.0,2.5,889.2000683435336,2.6137966440579157,13.27542749933214,64.57142857142857,350
14,40,65,20,2.0,2.5,786.9747223963462,2.6133130288669966,14.7225374375214,63.005780346820806,519
10,30,65,25,2.0,4.0,321.5662286950733,2.613086658331205,8.677227636197559,65.625,224
10,40,70,25,1.5,2.5,528.0254916904082,2.612275823380386,13.443983154193843,62.8175519630485,433
18,40,65,15,2.0,2.5,1779.4993082235615,2.6062971510720288,15.015934828250682,61.386138613861384,707
10,40,70,20,2.0,2.5,945.4278486901836,2.6048881552158387,11.451329896272606,64.84751203852326,623
18,30,75,20,2.0,4.0,3680.6905457926073,2.6046936154082054,20.250161946331964,54.67775467775468,481
10,30,70,25,2.0,3.0,431.05540766567805,2.6032234909433645,10.63426384023232,66.30036630036629,273
14,30,75,25,1.5,2.5,1214.1431767647089,2.600715155205315,15.827323101689784,57.7922077922078,462
18,35,70,15,1.5,2.5,2097.1628349776092,2.598611613298099,14.290924848754369,54.704301075268816,744
14,40,65,25,2.0,3.0,520.4883625653559,2.5978873207522586,14.067470059998625,65.9090909090909,308
10,40,65,20,2.5,3.0,693.3773974543351,2.5977008883975894,17.249310892282587,65.54307116104869,534
14,35,75,20,2.5,4.0,3457.314713834456,2.5960294909271675,20.81092225075518,59.895833333333336,576
14,35,65,25,2.0,2.5,503.4554594510026,2.5934080082269935,13.274759235766448,68.63468634686348,271
18,35,65,25,2.5,4.0,874.3550012631662,2.5921357289391036,19.202471081258302,68.6046511627907,258
14,30,65,25,2.5,4.0,482.87763762260346,2.5900598101958,21.368274893967058,72.77227722772277,202
18,35,65,25,2.5,3.0,817.4414649498765,2.5856632107242703,14.611690725982521,68.21705426356588,258
18,30,65,25,1.5,2.5,609.2249661828575,2.5818372468603354,16.230832537696866,66.26506024096386,249
14,35,75,15,2.0,3.0,3270.4380027011903,2.581498835823861,20.099029397361328,56.33802816901409,781
10,30,70,15,2.5,2.5,1082.4338067588428,2.580691243018315,15.94328210447132,68.80131362889983,609
14,40,65,15,2.5,4.0,1506.542691804939,2.578402721688627,21.85821988647891,63.98852223816356,697
10,30,75,25,2.0,3.0,722.6914537251259,2.5772035032698613,14.30613890000286,64.92753623188405,345
18,35,75,25,2.0,4.0,3202.5428939909666,2.5726063658709815,15.665959876611286,53.98230088495575,452
14,30,75,25,2.5,4.0,1683.4565842855795,2.571582359424646,20.810922250755155,62.17765042979943,349
18,30,70,15,2.5,4.0,2236.425876597847,2.5712106456917243,21.95672539969655,62.295081967213115,427
14,40,70,20,2.5,2.5,1425.0825730716247,2.5710200432218207,19.38957651426255,63.888888888888886,576
18,30,65,20,2.5,4.0,1043.049813514292,2.5702239352198215,20.421987022727436,65.73208722741433,321
10,40,70,20,2.5,3.0,1043.3688571435955,2.5691782229384486,19.621502606681037,66.26916524701873,587
14,40,75,20,1.5,3.0,2402.9950583182613,2.5672612738457765,17.50098047951296,51.030303030303024,825
10,40,65,15,2.5,2.5,1023.8890063595754,2.5634001991473188,15.508387976097387,64.12213740458014,786
14,30,70,25,2.5,4.0,821.9513927472553,2.5591106784505913,21.368880792740402,68.30188679245282,265
14,40,75,15,2.0,4.0,4186.378429245908,2.5575733228828472,29.82362272449346,52.836879432624116,846
18,30,75,15,2.0,4.0,3714.2039184386613,2.5536940985044128,20.25016194633195,53.980582524271846,515
18,30,75,25,1.5,3.0,2012.6502744622535,2.553408459618242,16.621250219007877,54.03225806451613,496
14,40,65,25,1.5,3.0,451.89877777790883,2.5532578669665478,14.387202558943155,61.44578313253012,332
10,30,65,25,2.0,3.0,305.2908378138562,2.5504042072583206,9.38708510584271,65.17857142857143,224
18,35,65,20,2.5,3.0,1256.7818954401798,2.54943422484983,15.705299948820006,64.1025641025641,429
18,40,70,15,2.0,3.0,2812.2536886359794,2.5489922406745213,18.12973267920649,56.81511470985156,741
14,40,70,25,1.5,2.5,764.1999701939317,2.5486283031398713,14.605747538618482,60.047281323877066,423
14,40,75,25,1.5,3.0,1537.1439166268158,2.543832891401498,17.50098047951296,54.123711340206185,582
14,35,65,20,2.5,2.5,761.5354053194183,2.539235827216196,17.343780807247597,66.34844868735084,419
10,35,65,25,2.5,4.0,385.7299412300405,2.538893600091656,9.513097362551736,66.07142857142857,280
10,40,65,20,2.0,2.5,581.7909157758056,2.5388776029354814,14.501244304644642,63.864042933810374,559
14,40,70,15,2.5,4.0,2710.138881335845,2.53831200838086,29.628374463303253,61.61073825503356,745
18,30,65,20,2.5,3.0,943.0435752686892,2.532580009396825,15.961562058178968,65.73208722741433,321
14,35,70,20,2.5,2.5,1262.7562879892848,2.527138083062904,19.389576514262533,64.78599221789884,514
18,35,75,15,2.0,4.0,4736.865147086358,2.524069084577809,20.25016194633195,51.17004680187207,641
18,35,75,25,1.5,3.0,2285.6023809159974,2.5202700116174475,16.621250219007862,51.89655172413793,580
18,30,70,20,2.5,4.0,1845.5499793168856,2.5198950977094743,20.421987022727457,63.03191489361703,376
18,35,70,20,2.5,4.0,2445.682087103328,2.51498417201019,20.42198702272743,59.71370143149284,489
18,35,75,15,1.5,3.0,3284.768183924033,2.512407958505147,19.91620027535387,49.08200734394125,817
10,35,65,25,1.5,2.5,300.6171688940617,2.507821027062922,8.25689028237144,60.70287539936102,313
14,40,75,15,1.5,3.0,3047.990313901655,2.502220941360837,19.63808930446555,50.20325203252033,984
10,40,65,25,2.0,3.0,407.755644926962,2.5017702920584592,9.005051125253592,65.45961002785515,359
10,30,70,25,1.5,2.5,342.2707121329478,2.501651427733743,10.475229670491034,62.116040955631405,293
18,40,65,25,2.5,3.0,802.5992273175257,2.49791526529874,14.604245347499797,66.32302405498281,291
14,35,75,15,2.5,4.0,3717.919476190433,2.492194276733332,22.319538534415805,57.886904761904766,672
18,40,65,25,2.5,4.0,848.6342652719732,2.4918140171446717,19.202471081258267,66.55172413793103,290
14,30,75,25,2.0,2.5,1167.6479476570546,2.490411370426517,13.774944050478135,62.65356265356266,407
10,40,75,15,2.0,2.5,2086.938827026554,2.4890163340133937,17.469371336156325,61.37787056367432,958
10,40,70,25,2.5,4.0,628.3765803040855,2.488376679876323,18.879982700988432,67.01846965699208,379
10,30,65,25,2.5,4.0,313.2377760787367,2.487090959025108,9.513097362551745,68.22429906542055,214
14,40,70,25,2.0,2.5,801.5228673981783,2.4855245694429215,13.349054874199878,63.49614395886889,389
10,40,70,25,2.0,2.5,528.6422730591452,2.480694139811398,10.83614329564381,66.0891089108911,404
14,40,70,25,2.5,4.0,974.3623427561099,2.478742878676392,21.43563699254863,65.72237960339945,353
14,30,75,20,2.5,3.0,2145.8981859179703,2.473965831640145,16.24883619500687,61.584158415841586,505
18,40,65,15,2.5,3.0,1879.3679021286625,2.473548653827415,18.32145366028491,63.793103448275865,638
18,40,70,15,2.5,4.0,3340.265159050803,2.469554642546608,22.661733480499848,57.99999999999999,650
14,40,75,20,2.5,4.0,3092.9370136947628,2.4666466618035563,22.385487645392168,57.89473684210527,627
14,40,75,20,2.0,3.0,2381.951872900975,2.465127609482191,21.801797841615308,55.05464480874317,732
14,40,75,25,2.0,3.0,1571.2843587027132,2.4649447361282313,14.396673077244982,58.203125,512
18,30,70,15,1.5,2.5,1303.0691576155923,2.4638633135410446,15.3511290826639,56.09318996415771,558
10,30,75,20,2.5,2.5,1091.4648716684037,2.46296822243623,16.82985573872946,65.22593320235757,509
10,35,70,25,2.0,2.5,438.5921031211839,2.46267674844353,10.634263840232302,66.57060518731988,347
18,30,75,15,1.5,3.0,2351.5931951393845,2.4626029891475225,19.9162002753539,50.983358547655065,661
10,40,75,25,1.5,3.0,816.9645306141629,2.460314442303891,14.856903195467916,58.058608058608066,546
18,35,75,20,1.5,3.0,2781.3810882019343,2.4584597009631106,19.9162002753539,50.0,736
18,35,70,25,1.5,2.5,1073.5023456884253,2.4560156373306237,16.189895293632926,60.43689320388349,412
18,40,75,25,1.5,3.0,2325.604748765174,2.4551047441565967,17.83613610737353,51.58227848101266,632
10,35,65,25,2.0,3.0,319.62157170865356,2.4539683457708468,7.997065578123339,64.0677966101695,295
10,35,75,25,2.5,4.0,951.7280919918518,2.449735316650022,22.228780372352958,66.33165829145729,398
14,40,65,20,2.5,2.5,744.12325824776,2.448773536794085,18.098145081886805,64.8870636550308,487
10,40,65,25,1.5,2.5,339.8802544488179,2.446516138746117,12.879311774995154,61.417322834645674,381
14,40,70,25,2.5,3.0,879.0379869223992,2.44577396395591,16.779030203775815,65.64245810055866,358
14,30,70,25,2.5,2.5,675.5778058196944,2.4439774504623824,19.389576514262526,67.4074074074074,270
18,40,75,15,2.0,4.0,4683.397079826623,2.440773113712318,21.334207149457427,49.57983193277311,714
18,30,65,25,2.5,3.0,604.9238716797377,2.434398151185313,13.117602347098087,68.37209302325581,215
10,30,65,25,2.0,2.5,270.5252824015878,2.4284887809949542,9.461207545003953,65.17857142857143,224
10,30,75,15,2.5,2.5,1466.6602115051048,2.4195745148358214,19.880219008629897,66.12665684830633,679
18,30,70,20,1.5,2.5,1096.397536762475,2.417193726393555,13.86648107550742,57.113821138211385,492
14,40,65,25,2.0,2.5,428.9555199947303,2.4170476593063634,14.067470059998636,65.80645161290323,310
18,30,65,25,2.5,4.0,632.1865688198859,2.4158388749382924,19.202471081258278,68.83720930232559,215
18,40,75,20,1.5,3.0,2881.435178733759,2.411335343792614,19.916200275353894,49.08200734394125,817
18,30,75,20,1.5,3.0,2063.387327258763,2.405652848196161,19.916200275353926,51.465798045602604,614
18,40,70,25,1.5,2.5,1085.0738735453635,2.403818568468589,17.765101158710532,58.26086956521739,460
10,30,70,25,2.5,4.0,400.21291368046013,2.4024428884170734,15.894235797777027,69.64980544747081,257
10,40,65,25,2.5,4.0,412.9810204950928,2.4020681186749964,10.486990384325647,66.47230320699708,343
18,40,70,25,2.5,4.0,1513.5913108807847,2.4017049447548797,19.202471081258274,64.08839779005525,362
10,30,70,25,2.0,2.5,351.5961487602891,2.401613480875619,10.63426384023232,65.93406593406593,273
14,40,65,15,2.5,3.0,1131.9641431179828,2.3997546257887468,17.22666010753813,63.37625178826896,699
10,40,75,25,2.0,3.0,864.4573246349138,2.3989132795073016,14.505048493645903,62.44979919678715,498
14,30,75,20,1.5,2.5,1385.8936022408366,2.3974301555644604,15.827323101689798,53.73134328358209,670
18,35,70,25,2.5,4.0,1374.691028452146,2.395432587604495,19.20247108125828,64.61538461538461,325
14,40,65,25,1.5,2.5,380.06285389505535,2.3928669884270435,16.402373263223406,61.377245508982035,334
14,35,70,15,2.5,2.5,1481.4793159426208,2.383707612993977,21.359705504778173,63.48733233979136,671
14,35,65,25,2.5,3.0,450.54031743536814,2.367995370609298,16.70767547044795,69.29133858267717,254
14,35,70,25,2.5,3.0,754.5899265726596,2.3656730730279594,16.70831728158965,66.0493827160494,324
14,40,65,15,2.0,2.5,910.0910785363242,2.364996784510485,13.81513396847803,61.569148936170215,752
10,35,70,25,2.5,3.0,456.92634805532873,2.3633882468742793,16.959769759071264,67.6923076923077,325
14,35,65,15,2.5,2.5,885.1273142064343,2.357079132024823,18.215042233207555,65.2991452991453,585
10,30,65,25,2.5,3.0,277.20897219216897,2.3563587760956466,9.713036998831406,67.28971962616822,214
18,30,70,25,2.5,4.0,1089.6738878992132,2.3560691795480704,19.202471081258285,66.66666666666666,264
14,35,75,25,1.5,2.5,1042.8232224978015,2.355123417774079,15.827323101689746,55.80110497237569,543
14,35,75,25,2.5,4.0,1498.5177250785418,2.3507068291427933,20.81092225075518,60.3448275862069,406
18,35,70,20,1.5,2.5,1264.9985382662699,2.3499308490009874,19.008155802789446,54.55974842767296,636
18,30,65,15,2.5,2.5,821.207128521502,2.347802289295542,15.705299948819984,65.52631578947368,380
10,30,75,25,1.5,2.5,496.7297451008397,2.338577089267399,14.001326412232851,60.317460317460316,378
14,35,70,25,2.5,4.0,777.2660110660144,2.336178291736777,21.368880792740374,65.72327044025157,318
14,40,65,25,2.5,3.0,458.4709315307988,2.3336664207424223,17.469007772880353,68.16608996539793,289
10,30,75,25,2.5,4.0,665.2304001522251,2.33300203423629,21.860367246613837,67.40506329113924,316
10,40,65,20,2.5,2.5,511.6014802127149,2.3295398918600303,17.249310892282637,64.41947565543072,534
18,30,70,25,1.5,2.5,790.0500731734246,2.326110331344448,16.18989529363295,61.76470588235294,340
18,30,75,25,2.0,3.0,1557.9584143249272,2.3226853666370255,15.665959876611254,57.14285714285714,434
18,35,65,25,2.5,2.5,588.7191233003036,2.318112020050195,14.611690725982559,67.6923076923077,260
10,40,65,25,2.0,2.5,337.9274381174977,2.314548302055692,9.005051125253589,64.9025069637883,359
18,40,75,15,1.5,3.0,2722.279664841835,2.3143420239470567,19.91620027535394,47.93296089385475,895
10,40,70,15,2.5,2.5,1173.9068477581409,2.3064514491370383,18.343639100978454,65.24822695035462,846
10,40,75,15,2.5,3.0,1910.2461186122448,2.3062515231831195,21.881016661709904,64.14027149321268,884
14,30,75,15,1.5,2.5,1423.404236281177,2.305587572126666,18.569045949831565,52.658884565499356,771
14,30,75,20,2.0,2.5,1382.0343554367523,2.2970726847134753,13.77494405047815,58.591065292096225,582
18,40,70,20,1.5,2.5,1294.8407160012655,2.2884019302376037,19.00815580278946,53.18559556786704,722
18,30,75,25,2.5,4.0,1889.4141539025832,2.2871185515559262,19.20247108125828,57.34463276836158,354
14,30,75,25,2.5,3.0,1074.640495975687,2.2853760444045754,16.248836195006895,62.32686980609419,361
18,40,70,15,1.5,2.5,1577.9507378676876,2.284085715121744,14.713242940403218,51.86046511627907,860
10,40,70,25,2.5,3.0,493.97135969569285,2.2745491041569554,18.879982700988432,66.05263157894737,380
10,40,75,20,1.5,2.5,933.5743281806382,2.2736757269893557,16.775860955841527,56.79314565483477,817
10,35,75,20,2.5,2.5,1036.0388834581343,2.272494566579229,20.71479591011767,64.73509933774835,604
18,35,70,15,2.5,3.0,1857.6587298818322,2.2689318068475077,19.503896965512034,60.0,590
10,35,65,25,2.0,2.5,267.21112601912546,2.267696321832601,7.997065578123347,64.0677966101695,295
10,30,65,25,2.5,2.5,252.57128818825421,2.2659499592151238,9.786892805478079,67.28971962616822,214
10,35,75,25,1.5,2.5,544.0924657629533,2.262052634943541,13.937265659796289,59.07172995780591,474
10,40,75,20,2.0,2.5,1048.4362990229195,2.2572797428782145,14.202754990235011,60.78167115902965,742
18,35,75,25,2.0,3.0,1665.7479339187205,2.2569332490886986,15.665959876611279,54.1747572815534,515
14,35,65,25,2.5,4.0,435.76145002201343,2.255525056989058,21.36827489396702,69.1699604743083,253
18,30,70,20,2.5,3.0,1184.6222408590102,2.2552303288328686,16.96561219551798,62.7906976744186,387
18,35,65,15,2.5,2.5,1017.8390901251697,2.255118602015101,16.48568942245353,63.284132841328415,542
14,40,65,25,2.5,4.0,455.9816386266666,2.2529542791884167,22.087007053950927,68.40277777777779,288
10,35,75,25,2.0,2.5,598.5890412708555,2.2521934767889764,13.946138226996425,63.32574031890661,439
10,30,70,25,2.5,3.0,342.9574902118516,2.2511737774403393,15.894235797777096,68.9922480620155,258
10,40,75,20,2.5,3.0,1211.9327612574155,2.2490362091460145,19.967949990641014,63.8235294117647,680
10,30,75,25,2.0,2.5,497.9608183014709,2.240723214102458,14.306138900002876,63.89684813753582,349
18,40,65,25,2.5,2.5,578.607452927758,2.2363896455987424,14.604245347499797,65.3061224489796,294
14,35,75,25,2.0,2.5,986.5683571390342,2.235116715631005,13.774944050478116,59.876543209876544,486
18,40,70,20,2.5,3.0,1652.6814066090355,2.233810886187841,18.914793354978652,60.317460317460316,567
18,30,70,25,2.0,2.5,732.0209817721005,2.233401659782092,15.665959876611272,65.78073089700996,301
10,35,75,15,2.5,2.5,1410.383426786835,2.2315079740263846,22.27294240587919,64.75716064757161,803
10,40,70,20,2.5,2.5,676.4308726253516,2.2286999359293964,21.121752140063776,65.1360544217687,588
18,30,70,15,2.5,3.0,1270.319702864832,2.228513180435788,17.33100416413622,61.904761904761905,441
18,30,70,15,2.0,2.5,1061.135278688995,2.220062262619593,16.676720454109677,60.36585365853659,492
14,40,75,25,2.5,4.0,1407.6137384677695,2.2162321472946935,22.385487645392143,58.013544018058695,443
10,35,65,25,2.5,3.0,279.63858371651696,2.214986796884678,9.513097362551724,64.64285714285715,280
18,40,75,25,2.5,4.0,2254.882139854459,2.211656938269092,19.202471081258295,55.50660792951542,454
18,30,65,20,2.5,2.5,622.1214679996671,2.207433692741146,15.961562058178952,64.61538461538461,325
18,40,65,20,2.5,2.5,851.2359918230051,2.2072848646337015,16.272150317084616,62.6,500
18,30,70,20,2.0,2.5,935.6609787900549,2.2047290477498103,16.91089476975644,61.149425287356316,435
18,30,65,25,2.5,2.5,456.97869312976695,2.2035235573635354,13.117602347098087,67.74193548387096,217
18,35,75,25,2.5,4.0,1974.0501085667322,2.2021902736686676,19.202471081258295,55.582524271844655,412
14,30,75,15,2.5,3.0,1705.9304097111055,2.2006329098624824,19.9347437920563,59.28449744463373,587
14,35,65,25,2.5,2.5,379.8812992874097,2.2005260950853662,16.707675470447956,69.41176470588235,255
14,40,70,25,2.5,2.5,643.1548047139137,2.200410684258935,19.389576514262554,64.93150684931507,365
14,40,70,15,2.5,3.0,1515.2246014292411,2.199589631274096,32.273119824487146,61.34564643799473,758
14,40,65,25,2.5,2.5,386.53845979545684,2.1985532023106757,17.469007772880328,68.15068493150685,292
18,35,70,20,2.5,3.0,1406.860019945706,2.196738698449003,19.04590381075894,59.84095427435388,503
18,40,70,25,2.0,2.5,872.2760364548767,2.1943744092129194,15.665959876611248,61.057692307692314,416
18,35,70,25,2.5,3.0,961.024316331562,2.1857696944582807,14.534371641206922,64.39169139465875,337
18,35,70,25,2.0,2.5,808.15836029879,2.1840826185196103,15.665959876611288,62.634408602150536,372
10,30,75,25,2.5,3.0,522.1045937163457,2.1812990300287494,17.36892654485791,66.25,320
18,40,75,25,2.0,3.0,1635.5607084323883,2.1765724276143468,16.20577583686765,54.092526690391466,562
10,40,65,25,2.5,3.0,326.6923477314164,2.1755024966426046,12.245207645579233,65.3061224489796,343
14,35,75,20,2.5,3.0,1654.057366288128,2.172690659474256,16.83190546505378,59.833333333333336,600
18,35,75,20,2.0,3.0,2001.957103363418,2.172415220563944,20.250161946331964,52.39567233384853,647
18,30,70,25,2.5,3.0,789.7158630029201,2.1643566208341727,14.322017771976661,66.42335766423358,274
10,35,75,25,2.5,3.0,610.1386101224477,2.1491588476956327,18.536705374861626,65.2605459057072,403
18,40,70,25,2.5,3.0,988.2824007480893,2.148351314716587,14.585401123344196,63.733333333333334,375
18,30,75,25,1.5,2.5,1057.4576123063086,2.1464559145602626,16.18989529363293,53.53159851301115,538
10,40,75,25,2.5,4.0,776.9805642600711,2.1405244365995224,22.483749072810472,65.0,460
14,30,75,15,2.0,2.5,1279.568748915998,2.137903406813561,19.350964593407962,57.58928571428571,672
18,30,75,20,2.0,3.0,1558.022273501394,2.1349967631041156,20.25016194633194,54.80225988700565,531
18,40,70,20,2.0,2.5,1146.5064226562963,2.1339514028930364,17.164030463371528,57.18701700154559,647
18,35,75,20,2.5,4.0,2410.6893408479787,2.131726222628036,25.243208247696348,53.63984674329502,522
18,30,75,20,2.5,4.0,1896.4150300121207,2.1157816176843003,27.523347155632955,55.172413793103445,435
14,40,70,15,2.0,2.5,1131.1155979306848,2.1139757559560306,27.559009603916852,58.85167464114832,836
18,35,65,20,2.5,2.5,695.5531581147258,2.1114823910376765,15.705299948820006,62.06896551724138,435
10,35,70,25,2.5,2.5,348.9814873715991,2.1113004922623935,18.526049928461887,67.38461538461539,325
14,35,75,15,1.5,2.5,1311.3738010051165,2.1093632518658105,20.49445026685999,51.98237885462555,908
14,40,65,15,2.5,2.5,753.7876272379675,2.1090803541526952,17.226660107538095,62.78409090909091,704
18,35,70,15,2.0,2.5,1192.958279405678,2.1043011648968304,16.67672045410967,57.721139430284865,667
10,30,70,25,2.5,2.5,289.75197604954974,2.097520461306624,15.894235797776968,68.72586872586872,259
10,35,65,25,2.5,2.5,245.9175922092159,2.0888423238706575,9.513097362551735,64.64285714285715,280
18,35,75,15,2.5,4.0,2478.5328886525413,2.0880614357976133,25.24320824769635,52.70506108202443,573
18,30,75,15,2.5,4.0,1918.4407193647162,2.0849341398359504,27.171788748970727,54.29184549356223,466
18,40,75,20,2.5,4.0,2470.9498263970704,2.079921601489302,25.243208247696337,53.528399311531835,581
14,35,70,25,2.5,2.5,533.3530991392441,2.0739748581753408,19.38957651426251,65.2439024390244,328
18,30,75,15,2.0,3.0,1531.2240850067321,2.073080570510186,20.250161946331925,54.21052631578947,570
14,35,75,20,1.5,2.5,1045.8120165648577,2.0696100708431118,15.827323101689784,52.344740177439796,789
18,35,75,25,1.5,2.5,1080.3156771145873,2.055758997707192,16.55411098323344,52.18093699515347,619
10,40,70,25,2.5,2.5,379.4468479184692,2.0520869664281327,20.394072563919238,65.61679790026247,381
18,35,75,15,2.0,3.0,1811.6317330481702,2.0428115121711556,20.250161946331964,51.88811188811189,715
14,35,75,25,2.5,3.0,905.6313552344875,2.042740451554973,16.248836195006884,61.03286384976526,426
14,40,75,20,2.5,3.0,1417.1091771598876,2.02882810686106,20.724686480806707,58.06451612903226,651
14,40,75,15,2.5,4.0,2017.0928211321184,2.0273479003624257,33.35035051418484,55.407209612817084,749
14,35,75,20,2.0,2.5,1095.1321391256536,2.0245980900010245,17.251753795063,57.163323782234954,698
18,40,75,20,2.0,3.0,1759.4808644096183,2.021455491150223,20.250161946331954,51.45631067961165,721
18,35,70,20,2.0,2.5,896.6969756696983,2.017408506741817,16.910894769756446,57.26795096322241,571
10,40,65,25,2.5,2.5,276.3850731040931,2.0172966984626406,12.245207645579269,64.72303206997084,343
18,40,65,15,2.5,2.5,916.5335149046027,2.005138896897797,18.32145366028488,61.882716049382715,648
14,40,75,15,2.0,3.0,1515.217296721864,1.9868571844062983,29.823622724493436,53.37142857142857,875
10,40,75,25,1.5,2.5,455.3086730246368,1.9734717292935438,18.051512025710625,57.53176043557169,551
14,35,75,15,2.5,3.0,1418.603023992467,1.9555727437230528,19.91935375368042,57.99999999999999,700
18,30,75,15,1.5,2.5,1022.9593791409798,1.9545660463933503,17.45070543951323,51.540616246498594,714
18,40,70,15,2.5,3.0,1307.9506817298575,1.9469032571789526,18.478064894658633,58.12220566318928,671
10,30,75,25,2.5,2.5,393.1224254092617,1.9434022373952113,17.368926544857853,65.94427244582043,323
18,40,75,15,2.5,4.0,2133.0324181637143,1.9410976017961772,27.20000589932593,51.73501577287066,634
18,40,75,25,1.5,2.5,981.5448989219149,1.9302026779137256,18.204460898702646,51.248164464023496,681
10,40,75,25,2.0,2.5,480.9290054730571,1.9291893987493047,14.505048493645937,61.50793650793651,504
14,40,75,25,1.5,2.5,656.0515894793441,1.9276780396987212,18.98562563892524,52.892561983471076,605
14,40,75,25,2.5,3.0,854.5824384877815,1.9213095191847953,17.785179677471923,58.620689655172406,464
18,35,75,15,1.5,2.5,1180.2794559058518,1.9145428331221475,17.450705439513257,49.942594718714126,871
18,30,75,20,1.5,2.5,909.0298779662374,1.9039400995922349,16.88005132652699,52.01793721973094,669
18,40,70,15,2.0,2.5,964.5411203949747,1.885116128431574,18.129732679206512,55.252918287937746,771
18,35,75,20,1.5,2.5,1039.8278212726045,1.8789998339176164,19.96629681300204,50.943396226415096,795
14,30,75,20,2.5,2.5,839.624197952222,1.8710670430873158,19.389576514262565,60.68702290076335,524
14,40,75,20,1.5,2.5,808.422951183854,1.8569407698393825,18.985625638925246,50.57870370370371,864
10,40,75,15,2.5,2.5,905.9226582106867,1.849811905355272,22.56278319908227,63.258426966292134,890
14,30,75,25,2.5,2.5,579.2794786290782,1.849549618582561,19.38957651426254,61.55913978494624,372
10,40,75,20,2.5,2.5,648.772865305396,1.830671027958325,21.089618877694914,62.68221574344023,686
14,40,75,25,2.0,2.5,616.6497720816009,1.8184655963645253,14.396673077244943,56.877323420074354,538
10,40,75,25,2.5,3.0,478.5239028238146,1.8156751057185474,19.256649782445777,63.498920086393085,463
18,40,75,20,1.5,2.5,1005.4162673351072,1.8059830591829547,19.008155802789464,49.943117178612056,879
18,30,75,25,2.0,2.5,694.7816889316622,1.8007840409471827,17.54632469339261,56.83297180043384,461
14,35,75,15,2.0,2.5,903.4300300890824,1.8004983510651125,19.640472475887382,56.14250614250614,814
10,35,75,25,2.5,2.5,392.9690836934295,1.7964458164651789,19.678433507618966,64.77832512315271,406
18,30,70,25,2.5,2.5,461.1804807168658,1.7862458902111864,19.389576514262505,65.0,280
18,40,75,15,2.0,3.0,1260.700277707799,1.781662043132348,21.28645096190013,50.06305170239597,793
14,40,70,15,2.5,2.5,767.7341498968369,1.775270367990404,32.273119824487225,60.75129533678757,772
14,40,75,15,1.5,2.5,909.8590091297697,1.7741331671847556,21.084275239870646,49.75466143277723,1019
18,30,70,20,2.5,2.5,561.3624299574705,1.7560448809545728,19.389576514262536,62.15538847117794,399
18,35,70,25,2.5,2.5,505.04676428258045,1.7439226708060247,19.389576514262526,63.26530612244898,343
18,40,70,25,2.5,2.5,536.8823561325563,1.7427402330155994,20.213876887432747,62.239583333333336,384
18,30,75,25,2.5,3.0,730.59501153917,1.727797614252575,18.995820427609463,57.46835443037974,395
18,30,70,15,2.5,2.5,583.1713992089236,1.7208496240558069,19.389576514262544,61.111111111111114,450
18,40,75,15,1.5,2.5,914.8665294539734,1.7011353361199728,20.566147133088343,48.74476987447699,956
18,35,75,25,2.5,3.0,769.3525824494129,1.6781650236049315,19.793450792905,56.03448275862068,464
14,40,75,20,2.0,2.5,651.7633210647062,1.6520022108276176,22.581616290977237,54.49804432855281,767
18,30,75,20,2.0,2.5,663.8080171316911,1.6425862444297383,18.055811221839654,54.833040421792624,569
18,35,70,15,2.5,2.5,657.8301715447385,1.640287152368234,20.2854341851629,58.84297520661157,605
18,35,75,20,2.5,3.0,896.7198654806401,1.6251768644890967,25.24320824769635,54.778156996587036,586
18,40,75,25,2.5,3.0,759.6319071309598,1.6215617480982394,20.819234439267465,55.92885375494071,506
18,30,75,20,2.5,3.0,722.6273467156251,1.5904638804532503,25.243208247696362,55.99173553719008,484
18,40,70,20,2.5,2.5,569.8425788274944,1.5856048049691547,20.213876887432765,58.71404399323181,591
18,35,75,25,2.0,2.5,562.9871521672943,1.5796449384181301,20.035075350532992,53.98886827458256,539
18,30,75,15,2.0,2.5,611.6148836847212,1.5527698933137282,18.055811221839637,54.276315789473685,608
18,35,75,20,2.0,2.5,648.9032243495475,1.54188645948062,18.055811221839676,52.39477503628447,689
18,35,70,20,2.5,2.5,489.24860192604916,1.5349902095891712,19.38957651426251,58.73320537428023,521
14,35,75,25,2.5,2.5,421.67019744065743,1.5339641555564623,19.38957651426255,59.95423340961098,437
18,35,75,15,2.5,3.0,794.9841927580246,1.5212407320394719,25.24320824769637,53.71517027863777,646
14,30,75,15,2.5,2.5,549.8732588875553,1.5176343569214057,22.718747518861623,58.34710743801653,605
18,40,75,25,2.0,2.5,537.4113262028796,1.5101395223805398,22.274906484205253,53.266331658291456,597
18,40,75,20,2.5,3.0,785.5739455050016,1.508649573274591,25.243208247696337,54.6583850931677,644
14,35,75,20,2.5,2.5,534.5665814423998,1.4975508715885293,20.136503959641633,58.842443729903536,622
10,40,75,25,2.5,2.5,302.3856580822676,1.4959134109000842,20.388287717059985,62.39316239316239,468
18,30,75,15,2.5,3.0,634.1380573813195,1.4905944226902081,25.24320824769635,55.29865125240848,519
14,40,75,15,2.5,3.0,689.1833214612046,1.4689673193985437,35.65565327606642,56.01023017902813,782
14,40,75,25,2.5,2.5,383.0045250753437,1.4281290954944261,19.38957651426256,57.72357723577236,492
14,40,75,20,2.5,2.5,488.5181522295567,1.4198358329707252,20.724686480806664,57.61973875181422,689
18,40,75,20,2.0,2.5,548.5367583951731,1.4023481269386042,23.25626220796621,51.48387096774194,775
18,35,75,15,2.0,2.5,510.50150497349654,1.358959189588361,18.05581122183966,51.651254953764855,757
18,30,75,25,2.5,2.5,371.70953355101767,1.3423801412581786,21.703036950825467,57.85714285714286,420
18,40,70,15,2.5,2.5,438.29576722477464,1.3369206671759577,22.036804484426657,56.9164265129683,694
18,40,75,15,2.5,3.0,514.6995304587508,1.260534459285342,25.243208247696362,52.6241134751773,705
14,35,75,15,2.5,2.5,350.55463491430964,1.190232298969976,22.718747518861584,57.00416088765603,721
18,35,75,25,2.5,2.5,315.09244985383,1.1867683754833926,24.70949154695335,56.34095634095634,481
18,40,75,15,2.0,2.5,345.26603907429336,1.1307831653956701,31.19618185998845,50.05889281507656,849
18,40,75,25,2.5,2.5,291.33877661779104,1.116366254866505,25.98946115981472,56.343283582089555,536
18,30,75,20,2.5,2.5,282.7004153144863,1.1084041221087821,23.452679925964027,56.2862669245648,517
14,40,75,15,2.0,2.5,289.5880105849693,1.0912859455049309,29.823622724493447,52.51091703056768,916
18,30,75,15,2.5,2.5,247.36068986696597,1.0249724160758091,21.322420121623363,55.81818181818182,550
18,35,75,20,2.5,2.5,222.32516048861535,0.9423522812721742,21.693862423299265,54.29497568881686,617
18,40,75,20,2.5,2.5,184.19855047250974,0.8438535056514794,24.26044988475239,54.47976878612717,692
18,35,75,15,2.5,2.5,173.17389988128375,0.8197703982906271,21.322420121623377,53.273809523809526,672
14,40,75,15,2.5,2.5,141.70847570822053,0.7522674082241041,41.316163403815274,54.93300852618758,821
18,40,75,15,2.5,2.5,91.7764772443259,0.592696219968836,25.012840627727893,52.53333333333333,750
