rsi_period,oversold,overbought,min_adx,stop_loss_atr,take_profit_atr,total_return,sharpe_ratio,max_drawdown,win_rate,total_trades
10,30,65,15,1.5,4.0,790.4593749115148,3.7100977348951023,9.50737657000403,63.91752577319587,582
14,35,65,15,1.5,4.0,1142.9334908492215,3.629933642955535,9.064740693625478,62.5,648
18,35,65,20,1.5,4.0,1362.8528843025156,3.602019879631527,14.602887551037533,65.01079913606912,463
14,35,70,20,1.5,4.0,1358.9005168956107,3.5548136559515036,9.416870096926383,62.410071942446045,556
14,35,65,20,1.5,4.0,800.2083004737867,3.512320616977299,9.118160849550613,65.77777777777779,450
10,30,65,15,1.5,3.0,663.6534697852435,3.5058270672221843,9.50737657000403,63.57388316151202,582
18,40,65,20,1.5,4.0,1534.7383362536557,3.4994635593524706,14.602887551037544,60.92362344582594,563
14,30,70,20,1.5,4.0,1140.0289088806496,3.497573178634819,14.461194529577245,63.597430406852254,467
14,35,70,15,1.5,4.0,1759.8500030255657,3.479551954035299,12.162080883863648,58.35579514824798,742
18,30,65,20,1.5,4.0,922.404753976121,3.415953897897756,14.602887551037552,66.76384839650146,343
10,40,75,15,1.5,4.0,2307.379354615412,3.4111516284420804,11.251804427241694,56.534365924491766,1033
10,30,75,15,1.5,4.0,1643.5814647802029,3.4086567852911283,15.549916660214002,57.95314426633785,811
10,30,65,15,1.5,2.5,614.4339488660363,3.4047878297934013,9.50737657000403,63.05841924398625,582
14,40,65,15,1.5,4.0,1313.3233709584993,3.395139585291611,9.303837857289425,62.3921085080148,811
10,35,75,15,1.5,4.0,1974.9416988111104,3.3850167869866796,16.875453134865896,56.748140276301804,941
10,30,65,15,2.0,4.0,699.8715619664159,3.3846441796314504,11.786628736921724,65.28776978417267,556
10,40,65,15,1.5,4.0,880.3611540262166,3.3816073119528416,12.127030083620006,61.849710982658955,865
18,40,65,15,1.5,4.0,1833.6564716260448,3.3701293835143793,16.80713689200747,57.91505791505791,777
10,35,65,15,1.5,4.0,808.2278607620856,3.3679821347193135,16.027713940157046,61.84573002754821,726
18,35,70,20,1.5,4.0,2008.6054695867206,3.367412417904289,14.602887551037538,57.26495726495726,585
18,35,65,15,1.5,4.0,1456.8662394304351,3.3621038837026513,14.602887551037542,60.64516129032258,620
14,35,65,15,1.5,3.0,831.7051832235016,3.3439571900937177,9.06474069362551,62.03703703703704,648
14,35,65,20,1.5,3.0,655.6362476440481,3.334259725577044,9.118160849550613,65.25612472160356,449
18,35,65,20,1.5,3.0,998.6977166418291,3.325091377265141,14.602887551037561,63.44086021505376,465
10,40,70,15,1.5,4.0,1229.3924765985753,3.3025666028672482,10.176981256641513,60.33402922755741,958
14,40,70,20,1.5,4.0,1490.789842578546,3.287919874528348,9.416870096926388,59.97088791848617,687
14,30,70,15,1.5,4.0,1177.609496662052,3.2678368859412776,14.46119452957729,59.11330049261084,609
14,30,65,20,1.5,4.0,586.8996000038873,3.2672765629536977,9.472217914446098,64.81994459833795,361
18,35,70,15,1.5,4.0,2306.2812096338,3.2643940273456864,14.602887551037542,54.338549075391185,703
10,35,65,15,1.5,3.0,730.904431703456,3.255100507571071,16.027713940157046,61.70798898071625,726
14,30,70,20,1.5,3.0,858.3283553869958,3.2436806911794855,14.461194529577298,62.526766595289075,467
18,35,65,20,2.0,4.0,1139.0075924106259,3.239712211879408,11.389765271865292,65.807962529274,427
14,35,70,20,1.5,3.0,959.5785101051806,3.237266354297564,9.416870096926397,61.51079136690647,556
14,40,70,15,1.5,4.0,1944.1335882145231,3.228729849590947,11.411939324220867,57.30211817168339,897
10,30,65,15,2.0,3.0,603.9147280271827,3.2185937990578353,11.786628736921752,65.10791366906474,556
18,30,70,20,1.5,4.0,1386.357894304185,3.2168976132332734,14.602887551037563,58.951965065502186,458
10,30,65,15,2.5,4.0,662.0319151924255,3.213756343782312,12.876242216118774,66.29422718808193,537
18,30,65,20,1.5,3.0,729.2695923031221,3.2052481285157244,14.602887551037528,65.40697674418605,344
10,40,65,15,1.5,3.0,749.1288878233748,3.1991831571584175,12.127030083620006,61.50289017341041,865
14,40,65,20,1.5,4.0,825.2695790923566,3.1969433764717725,9.303837857289471,63.6986301369863,584
14,35,65,15,2.0,4.0,906.4990616911274,3.1939611176743035,10.57793299363277,63.888888888888886,612
18,30,65,15,1.5,4.0,913.4860379559019,3.1923181231559403,14.602887551037542,62.61467889908256,436
10,40,75,20,1.5,4.0,1386.80704140864,3.187897960342398,9.416870096926374,55.434782608695656,828
18,40,65,20,1.5,3.0,1022.7897483719387,3.1813415977673163,14.602887551037533,59.717314487632514,566
10,30,70,15,1.5,4.0,822.0952966616674,3.1806030912692345,16.365775165665067,60.82036775106082,707
18,40,70,15,1.5,4.0,2491.6397810107933,3.1673056682299876,16.807136892007442,51.577669902912625,824
18,40,70,20,1.5,4.0,1937.44016969003,3.153419576732034,14.602887551037547,53.74251497005989,668
10,35,75,15,2.0,4.0,1812.9374270448168,3.1500634971155783,13.292373474688485,59.95260663507109,844
14,30,65,20,1.5,3.0,506.7511848213924,3.1487668911879365,9.472217914446098,64.26592797783933,361
10,35,65,15,2.0,4.0,735.1697295515348,3.1470923037078324,15.600167090663108,62.96829971181557,694
18,40,65,20,2.0,4.0,1291.1789202862096,3.1466910609049905,11.389765271865281,63.17829457364341,516
10,35,70,15,1.5,4.0,959.4345078077007,3.14023671618434,15.755414200453352,60.473372781065095,845
14,30,70,20,2.0,4.0,978.7888959891129,3.126308658765165,12.020878256086528,66.27634660421545,427
14,35,70,15,2.0,4.0,1431.6083864370157,3.1201488511347013,13.68129551948665,60.0297176820208,673
14,30,65,15,1.5,4.0,627.2004582266868,3.113612231788449,9.88822152760714,61.22047244094488,508
10,35,75,20,1.5,4.0,1119.5065878359567,3.1116619454695944,14.464859172209039,56.480218281036834,733
10,30,75,20,1.5,4.0,942.7249886694833,3.1090780278653245,14.464859172209065,57.18849840255591,626
10,40,65,15,2.0,4.0,766.9273791787527,3.0969914097500117,13.281692074899269,63.3495145631068,824
14,35,65,20,1.5,2.5,534.8040905518889,3.096142645493765,9.118160849550613,64.44444444444444,450
14,35,70,20,2.0,4.0,1024.2756766840557,3.0800980070652457,10.905278121658043,64.29980276134121,507
10,30,75,15,2.0,4.0,1420.7904198860479,3.0789819721069045,13.937184560413101,60.6267029972752,734
10,30,65,15,2.0,2.5,531.8780638813805,3.070231189635778,11.786628736921749,64.568345323741,556
18,35,65,15,2.0,4.0,1261.8770087284881,3.069833279691456,11.698249707270216,62.5886524822695,564
14,35,65,20,2.0,4.0,628.4707495049306,3.0670304013725733,11.386188150605792,66.2004662004662,429
10,40,75,15,2.0,4.0,1854.974051144297,3.0605420406215953,11.472999045158844,59.15948275862068,928
14,40,65,15,1.5,3.0,892.7387558912983,3.0559649352741944,9.064740693625504,61.69950738916257,812
18,40,70,25,1.5,4.0,1110.5649173520667,3.04981748237242,14.602887551037554,55.82959641255605,446
14,35,65,15,1.5,2.5,636.2144338872986,3.0457552577758134,9.06474069362548,61.23076923076923,650
10,35,65,15,2.0,3.0,662.6050318503726,3.036836349638173,15.600167090663062,62.824207492795395,694
10,40,70,15,1.5,3.0,943.7025900391986,3.0360686767267016,10.176981256641513,59.791666666666664,960
18,35,70,25,1.5,4.0,1010.1388688358597,3.0354115246183335,14.602887551037528,58.79396984924623,398
14,40,65,20,1.5,3.0,685.1120954482587,3.0344948935474703,9.064740693625502,63.464837049742705,583
10,30,65,15,2.5,3.0,559.4793794363928,3.0308338077266685,12.876242216118792,66.10800744878958,537
18,30,65,20,2.0,4.0,756.6153523637017,3.0307620862206566,11.389765271865276,66.9753086419753,324
14,40,65,15,2.0,4.0,1067.2465357105289,3.027756612156976,10.577932993632743,63.7203166226913,758
14,35,70,15,1.5,3.0,1028.6850589706505,3.0251973634467806,12.162080883863629,57.506702412868634,746
18,35,65,15,1.5,3.0,967.3497380430683,3.023496112965713,14.602887551037561,59.61538461538461,624
14,35,75,20,1.5,4.0,1879.4745878255583,3.0199290842092195,14.602887551037544,55.37065052950075,661
14,30,65,20,1.5,2.5,454.8277715861851,3.013834015542634,9.472217914446098,63.711911357340725,361
14,30,70,15,2.0,4.0,1108.204836567465,3.0134837395293026,13.681295519486673,61.30198915009042,553
14,35,70,25,1.5,4.0,606.192050341428,3.0104717086991264,9.416870096926393,64.65517241379311,348
10,35,65,15,1.5,2.5,585.8387163257196,3.0067902246145284,16.027713940157053,60.60606060606061,726
18,35,65,20,1.5,2.5,708.9461769180626,3.003587664819161,14.602887551037567,62.893081761006286,477
18,35,70,20,2.0,4.0,1572.3112755760726,2.994838095268308,11.455398520202387,59.92217898832685,514
14,35,75,15,1.5,4.0,2274.9142871805693,2.983025302260174,16.807136892007463,52.926208651399484,786
18,35,70,20,1.5,3.0,1235.690733205973,2.9799728859520775,14.602887551037542,56.738768718802,601
10,35,75,15,1.5,3.0,1212.3691037080512,2.9754086285217203,16.875453134865896,56.48050579557429,949
14,30,70,20,1.5,2.5,643.6253213909004,2.9670711441579765,14.461194529577254,62.0253164556962,474
14,30,65,20,2.0,4.0,521.385414163494,2.965888425712678,11.731409444825621,66.95402298850574,348
18,40,65,15,1.5,3.0,1083.7649642970423,2.9585888970828673,16.807136892007506,57.416879795396426,782
18,30,65,20,1.5,2.5,556.5378642225107,2.9546713763240633,14.602887551037533,64.67236467236467,351
10,35,70,15,1.5,3.0,792.3255429647754,2.9471094139866096,15.755414200453352,60.16548463356975,846
18,40,65,25,1.5,4.0,602.3756594124857,2.944425208906037,14.602887551037577,63.50574712643679,348
10,30,75,15,1.5,3.0,963.6513560983667,2.94403355143708,15.549916660213977,57.52753977968176,817
10,40,75,15,1.5,3.0,1304.9978700473068,2.9415594029646517,11.251804427241726,56.03448275862068,1044
18,30,65,15,1.5,3.0,681.3584312974843,2.9413581080627833,14.602887551037547,61.327231121281464,437
10,30,65,20,1.5,4.0,364.4519712247568,2.9410940018854803,8.493335140455411,63.29113924050633,395
18,30,70,15,1.5,4.0,1257.6098049834325,2.9376665529039205,14.602887551037547,55.21821631878557,527
14,40,65,20,2.0,4.0,732.9501232043885,2.9303365140170343,10.256335153079858,64.89945155393053,547
18,40,65,15,2.0,4.0,1390.7750288766035,2.929131654832151,17.27219959056799,60.36931818181818,704
14,30,70,15,1.5,3.0,790.0613406031597,2.9212731554457783,14.68332393101766,58.40130505709625,613
10,40,65,15,1.5,2.5,580.3009952973266,2.9177884516447112,12.777724875492783,60.578034682080926,865
10,30,65,15,2.5,2.5,507.4375586116714,2.9144842127010993,12.876242216118792,65.54934823091247,537
14,30,65,15,1.5,3.0,495.3556153234699,2.9092981579182897,9.06474069362551,60.90373280943025,509
14,40,70,20,2.0,4.0,1187.1217994272026,2.9091011941402356,11.041816869900742,62.540192926045016,622
18,35,65,20,2.0,3.0,801.0116735903937,2.9087396914025243,14.220547237104572,65.34883720930232,430
10,30,70,15,1.5,3.0,628.8969447520899,2.9050545593773762,16.365775165665067,60.451977401129945,708
10,40,70,15,2.0,4.0,974.5704882821857,2.900933047365106,11.952159682580442,62.14689265536724,885
18,35,65,20,2.5,4.0,916.2040102835622,2.8975898333952874,21.554429691864478,68.42105263157895,399
14,40,70,15,2.0,4.0,1561.21346068015,2.89651152404809,13.681295519486689,59.33250927070457,809
10,40,65,15,2.0,3.0,632.7254149547437,2.8920766474938135,13.28169207489925,62.98543689320388,824
10,35,65,15,2.5,4.0,654.9267368167816,2.882430701808978,18.455305934313404,64.19019316493313,673
18,30,70,20,1.5,3.0,915.734246984635,2.8774271094827437,14.60288755103753,58.51063829787234,470
14,30,75,20,1.5,4.0,1453.3075931046885,2.8743783595256467,14.602887551037568,54.8885077186964,583
10,35,70,15,2.0,4.0,867.2426039280705,2.8710599125931866,15.059200076433326,62.77278562259306,779
18,35,65,25,1.5,4.0,535.1727569058623,2.86794319850154,14.602887551037549,66.89419795221842,293
18,35,70,15,2.0,4.0,1694.9086607089555,2.862158581925674,11.538538123796831,57.073170731707314,615
14,40,70,20,1.5,3.0,906.4410509159816,2.861944697568005,9.416870096926376,58.951965065502186,687
14,35,65,15,2.0,3.0,629.1829239507388,2.8606384773282065,14.401926689108071,63.23529411764706,612
18,30,65,25,1.5,4.0,479.9922335928243,2.859382690642174,14.602887551037528,67.84313725490196,255
14,35,65,15,2.5,4.0,733.7171011842627,2.8567976680336544,16.936401518172143,65.18010291595198,583
14,35,70,20,1.5,2.5,643.4920851616263,2.852960865212922,9.416870096926425,60.99290780141844,564
14,35,65,20,2.0,3.0,506.9510063260983,2.8523514659698326,14.401926689108077,65.73426573426573,429
18,40,70,20,2.0,4.0,1593.8276920526152,2.851206711276239,11.389765271865278,57.52961082910322,591
10,30,75,20,2.0,4.0,876.0904125609879,2.8508627874655246,12.024647446437895,60.175438596491226,570
10,30,75,15,2.5,4.0,1348.0227791423565,2.837149229068699,19.573262291398922,63.543191800878475,683
18,30,70,25,1.5,4.0,749.3305575000162,2.8317705900071966,14.602887551037558,59.475218658892125,343
10,40,75,20,2.0,4.0,1126.976453962317,2.830118662186475,10.977561305141181,58.12080536912752,745
14,35,65,25,1.5,4.0,356.0226471803835,2.827663847697455,9.06474069362549,66.31944444444444,288
18,40,65,20,2.5,4.0,1031.39857853537,2.821556057114355,21.554429691864474,65.14522821576763,482
18,40,65,25,1.5,3.0,494.99013321252437,2.820764319006761,14.602887551037552,62.39316239316239,351
18,35,70,15,1.5,3.0,1243.070030379138,2.812339349393336,14.602887551037544,53.994490358126725,726
10,30,70,15,2.0,4.0,703.4606622219251,2.8112452419457026,15.345533435281,62.63399693721286,653
18,30,70,20,2.0,4.0,1052.1866576513032,2.809192798176334,11.442583431458148,60.53268765133172,413
18,35,70,25,2.0,4.0,881.243199045158,2.8089286943736207,11.389765271865297,61.12676056338028,355
14,30,65,15,2.0,4.0,559.2625288025863,2.805897987422529,10.799998422633964,63.14699792960663,483
14,35,70,25,1.5,3.0,494.4153241522863,2.8041854916957956,9.416870096926365,63.89684813753582,349
10,35,75,20,2.0,4.0,959.728400506175,2.797053147091297,12.024647446437948,59.028831562974204,659
14,40,65,20,1.5,2.5,546.5729043672922,2.7954741764776014,9.064740693625506,63.013698630136986,584
18,40,65,20,1.5,2.5,681.409603735155,2.7935404048201717,14.602887551037544,59.16955017301038,578
10,35,75,20,1.5,3.0,787.931643097743,2.790217690692565,14.46485917220904,55.902306648575305,737
10,40,65,15,2.5,4.0,659.4231751263029,2.7883438536581813,13.868420588901179,63.65914786967418,798
10,40,70,20,1.5,4.0,594.0405483339335,2.787999844609332,9.416870096926397,60.22727272727273,704
10,35,75,15,2.5,4.0,1496.8355946175113,2.785652354709374,18.640794275494716,62.0125786163522,795
14,30,70,20,2.0,3.0,680.7108527156931,2.78410543481299,14.220547237104514,65.5011655011655,429
10,35,65,15,2.0,2.5,522.080616787391,2.7813383492172274,15.600167090663087,61.815561959654175,694
10,40,75,20,1.5,3.0,870.4016310724303,2.7808614153635665,9.416870096926374,54.79616306954437,834
18,40,70,25,1.5,3.0,755.2138621603976,2.7761133097990345,14.602887551037574,55.31453362255966,461
14,30,70,25,1.5,4.0,463.237792265678,2.775766780053488,14.461194529577263,64.07766990291263,309
18,30,65,15,2.0,4.0,695.0258083459632,2.7751289401097434,11.698249707270264,62.8992628992629,407
14,35,70,25,2.0,4.0,529.1314625371407,2.7724386454673238,10.905278121658014,64.81481481481481,324
14,30,65,20,2.0,3.0,430.27557156212436,2.772165950046825,14.401926689108063,66.37931034482759,348
10,30,65,20,1.5,3.0,315.8462094092742,2.7697145411546558,8.493335140455411,63.29113924050633,395
10,35,65,15,2.5,3.0,577.8880725603372,2.7561357552063157,18.455305934313436,64.04160475482912,673
14,40,65,15,1.5,2.5,663.3093225585372,2.755124549322806,9.064740693625494,61.302211302211305,814
18,30,65,20,2.0,3.0,569.7187267696934,2.754191778891701,14.220547237104533,66.87116564417178,326
10,30,65,20,2.0,4.0,349.9529347766447,2.7530799202038208,9.57314271925804,65.17150395778364,379
14,30,65,15,1.5,2.5,432.4929271476754,2.75166158653885,9.064740693625495,60.588235294117645,510
18,40,70,25,2.0,4.0,927.7190357548881,2.7515416478960137,11.389765271865262,58.39598997493734,399
14,35,70,15,2.5,4.0,1104.6577672051544,2.7494470869403664,17.824994066285488,62.80193236714976,621
14,35,70,20,2.5,4.0,829.1007352315552,2.738885524952967,15.675827667215122,66.88034188034187,468
14,40,65,20,2.0,3.0,598.6588010269261,2.738192727811421,15.593347200481478,64.71663619744058,547
18,35,70,25,1.5,3.0,708.0526084236374,2.730968366177872,14.602887551037538,57.907542579075425,411
18,35,65,25,2.0,4.0,508.0089728463843,2.729772354748745,11.389765271865276,66.78832116788321,274
10,30,75,20,1.5,3.0,630.8358038862093,2.7270872201362155,14.464859172209007,56.52866242038217,628
10,35,65,20,1.5,4.0,368.64945785523264,2.726260203185985,8.795923246819948,61.30952380952381,504
18,40,70,20,1.5,3.0,1069.4450618467831,2.7207801369151965,14.602887551037547,53.56622998544396,687
14,35,65,20,2.5,4.0,505.73994223109116,2.7195053202315425,15.675827667215142,67.64705882352942,408
14,35,70,20,2.0,3.0,692.7159414021975,2.718187983993741,15.916261991840486,63.725490196078425,510
14,35,65,25,1.5,3.0,323.27123772876973,2.7125396987564954,9.06474069362549,65.97222222222221,288
10,30,75,15,1.5,2.5,749.5733234772372,2.709419853213747,15.549916660213972,57.506053268765136,826
10,30,70,15,1.5,2.5,525.1894510412972,2.7072172425325522,16.365775165665067,59.943582510578274,709
10,30,65,20,1.5,2.5,301.04407443945524,2.705962923946823,8.493335140455411,63.037974683544306,395
18,35,65,25,1.5,3.0,453.5783737430688,2.7021987504819687,14.602887551037538,65.42372881355932,295
18,35,65,20,2.5,3.0,690.6038258250223,2.693566474033492,21.554429691864456,68.40796019900498,402
18,40,70,15,2.0,4.0,1672.649703007345,2.6930773308064837,16.955466945747133,54.41988950276243,724
18,30,65,20,2.5,4.0,612.8100439721097,2.6927810507624326,21.554429691864467,70.19867549668875,302
18,35,65,15,2.5,4.0,966.654955737954,2.691806671455919,22.305747060324496,65.52380952380953,525
18,35,65,15,1.5,2.5,675.8452069444141,2.6917370265673726,14.602887551037561,59.06249999999999,640
10,40,75,15,2.5,4.0,1417.1850707935562,2.6895148771038153,12.632717105542406,60.93928980526919,873
18,40,65,20,2.0,3.0,760.2694726930775,2.6890692937354705,14.634406815018398,62.26053639846744,522
10,40,65,20,1.5,4.0,397.14679121958665,2.6884390231739697,10.325687662620584,62.108731466227354,607
18,30,65,25,2.0,4.0,445.57753880646453,2.6878964076363183,11.389765271865292,67.63485477178423,241
18,30,65,25,1.5,3.0,407.6864697621823,2.6878343751093325,14.60288755103753,66.40625,256
18,35,65,15,2.0,3.0,784.6454235032184,2.6856679944360087,14.220547237104578,62.038664323374334,569
10,40,70,15,2.5,4.0,866.6550020217004,2.6842385716223114,13.457928303551245,64.18439716312056,846
14,40,75,20,1.5,4.0,1599.7228617309054,2.682965057223921,14.602887551037588,52.43589743589744,780
10,40,70,15,1.5,2.5,652.6235077973498,2.6815830582912104,10.842116059097934,58.921161825726145,964
18,35,70,20,1.5,2.5,837.0693980536814,2.677495108419748,14.602887551037538,56.08974358974359,624
14,30,70,20,2.5,4.0,753.8400495294458,2.67025353883591,17.294205973431527,69.11392405063292,395
10,35,70,15,2.0,3.0,695.2712755432028,2.669438795166786,15.059200076433301,62.38767650834403,779
14,35,65,25,2.0,4.0,327.98967680184313,2.6674785439967352,9.06474069362547,66.54545454545455,275
14,35,70,25,1.5,2.5,418.2525033289704,2.6629349153334316,9.416870096926393,63.48314606741573,356
14,30,65,20,2.0,2.5,390.81265239821914,2.660072639031601,14.401926689108063,65.80459770114942,348
18,35,70,20,2.5,4.0,1250.3715865340887,2.659889065545894,21.55442969186449,62.231759656652365,466
18,30,70,20,1.5,2.5,681.786072429503,2.655657309383911,14.602887551037536,58.14432989690722,485
14,30,70,25,2.0,4.0,458.8830745491185,2.654599203766748,12.020878256086505,65.97222222222221,288
14,40,70,15,1.5,3.0,950.5511642279213,2.6532401374298415,11.41193932422088,56.415929203539825,904
14,40,65,15,2.0,3.0,696.3644955284,2.652929587497245,15.593347200481483,62.97760210803689,759
18,30,65,15,1.5,2.5,505.53790670782564,2.652540929030266,14.602887551037554,60.76233183856502,446
10,30,70,15,2.5,4.0,699.1523898548825,2.6504931330830663,20.889381279403878,65.58966074313409,619
14,35,75,25,1.5,4.0,924.5183460452785,2.649419616629531,14.602887551037563,56.182212581344906,461
14,40,70,25,1.5,4.0,539.1484619440594,2.636852026664476,9.416870096926354,59.210526315789465,456
10,35,65,20,1.5,3.0,339.8603177395346,2.6354120283334446,8.795923246819946,61.30952380952381,504
14,40,75,15,1.5,4.0,1797.194550746439,2.635220723697075,16.80713689200745,51.00896860986547,892
18,40,65,25,2.0,4.0,516.7608494309557,2.634405787179951,12.272890197009264,64.08668730650155,323
14,30,75,15,1.5,4.0,1330.53499810707,2.632935092833894,16.807136892007485,52.48538011695907,684
10,30,70,20,1.5,4.0,411.9871485100747,2.6322345644905005,14.464836949517206,60.040160642570285,498
14,35,65,20,2.0,2.5,413.03043875726235,2.632140069757925,14.40192668910806,65.11627906976744,430
10,35,75,15,2.0,3.0,960.6417770029736,2.625307713971245,15.144136910009806,59.36395759717315,849
10,40,65,15,2.0,2.5,490.9121357895846,2.6251287349776855,13.756819614572843,62.01456310679612,824
14,35,65,15,2.5,3.0,541.8680485633098,2.619807177481524,16.936401518172183,64.6655231560892,583
10,30,75,20,2.5,4.0,838.4552305364064,2.616216713692905,17.451265892952243,63.77358490566037,530
14,35,65,20,2.5,3.0,436.3294709648473,2.616189123087751,15.675827667215142,67.40196078431373,408
14,35,65,25,2.0,3.0,313.17529716360724,2.6138739236133866,9.06474069362547,66.54545454545455,275
14,30,70,25,1.5,3.0,392.8514980370371,2.6104028111776505,14.461194529577304,63.10679611650486,309
14,35,70,15,2.0,3.0,779.6603178990712,2.6101397086810647,16.183821683754786,59.23190546528804,677
10,30,65,20,2.0,3.0,307.1784360958784,2.607496853819609,9.573142719258106,65.17150395778364,379
14,30,70,20,2.0,2.5,545.9878710896666,2.6032153151731876,14.220547237104538,64.82758620689654,435
10,40,70,15,2.0,3.0,704.8746167268293,2.6022765992531682,11.952159682580467,61.51241534988713,886
14,35,65,25,1.5,2.5,292.84880871858235,2.5911750519466064,9.06474069362549,65.27777777777779,288
10,40,75,20,2.5,4.0,1007.4080257082171,2.5908530159991905,12.072433418151943,60.54519368723099,697
10,40,70,20,1.5,3.0,492.61888091718555,2.5902989222971224,9.416870096926397,59.94318181818182,704
14,35,65,15,2.0,2.5,485.152235714276,2.5902125910431013,14.401926689108052,62.64274061990211,613
10,35,70,15,1.5,2.5,555.0677117005386,2.588371899376348,15.755414200453318,59.31603773584906,848
18,40,65,15,2.5,4.0,1066.817144340095,2.587766387844095,25.02826149274391,62.70928462709284,657
18,30,70,25,2.0,4.0,643.4204437775654,2.5872583505691606,11.389765271865254,61.29032258064516,310
14,30,70,15,1.5,2.5,555.9771801832139,2.5849819665831397,14.683323931017704,58.132045088566834,621
14,35,70,25,2.0,3.0,425.03638919461014,2.583669940549508,10.90527812165803,64.7239263803681,326
18,40,70,15,1.5,3.0,1091.2454637626226,2.575117437824141,16.807136892007495,51.63551401869159,856
10,30,65,20,2.5,4.0,321.6462986576467,2.5698712127321226,9.990664989205204,66.39118457300276,363
10,40,65,15,2.5,3.0,529.8782634847416,2.5686108790490447,13.86842058890117,63.28320802005013,798
18,30,70,25,1.5,3.0,550.4591807056188,2.5678329684980543,14.602887551037561,58.87323943661972,355
14,35,75,20,1.5,3.0,1024.276936284994,2.5657720224144973,14.602887551037528,55.26315789473685,684
14,30,65,20,2.5,4.0,401.88031034930384,2.564538373284616,16.114693630441707,69.30091185410335,329
18,30,65,20,2.5,3.0,498.40420131435883,2.560877091205956,21.554429691864467,70.72368421052632,304
10,40,65,20,1.5,3.0,354.0009030426819,2.5594754093619616,10.325687662620584,61.94398682042833,607
14,35,70,15,1.5,2.5,625.6940260241299,2.5568855015107097,12.162080883863604,56.82119205298013,755
14,30,70,15,2.5,4.0,828.3329063217515,2.5563170549100653,17.557488672593642,64.24361493123773,509
10,30,70,15,2.0,3.0,534.1876855612427,2.553006603182756,15.345533435281009,62.32771822358346,653
18,30,70,15,1.5,3.0,762.7258720613327,2.5524554249310274,14.602887551037572,54.67889908256881,545
10,35,75,20,2.5,4.0,907.5733564372061,2.5520899380726014,17.45126589295226,61.850649350649356,616
18,35,65,25,2.0,3.0,413.130131262651,2.5487583017523128,11.389765271865274,66.78700361010831,277
18,35,65,20,2.0,2.5,542.8895993316531,2.54824859227784,14.220547237104558,64.38356164383562,438
14,30,65,25,1.5,4.0,262.85505629132916,2.5471346298959805,9.064740693625474,65.28925619834712,242
14,40,65,15,2.5,4.0,759.8125240630372,2.545631209102427,18.645769990329995,65.13249651324965,717
10,35,65,20,2.0,4.0,343.8210757124352,2.5434811558744395,9.066282171914953,62.55230125523013,478
14,30,70,15,2.0,3.0,646.3707214884931,2.542801654090788,14.30426494732567,60.431654676258994,556
18,40,65,15,1.5,2.5,688.6435656295307,2.542273918792985,16.80713689200746,56.94618272841051,799
18,40,65,25,1.5,2.5,367.9033195545011,2.5412115473608536,14.602887551037561,61.34453781512605,357
10,35,65,15,2.5,2.5,467.4037341471076,2.5345842833364105,18.455305934313436,63.00148588410104,673
14,30,65,25,2.0,4.0,273.79256089118667,2.533331180388667,9.064740693625462,67.94871794871796,234
10,35,70,15,2.5,4.0,726.6176758224203,2.528596064721969,20.621799306496733,64.83221476510067,745
18,40,70,20,2.5,4.0,1252.8322435613936,2.5283620343765114,21.554429691864488,60.373831775700936,535
10,30,75,20,1.5,2.5,512.2879846111537,2.525246401428077,14.46485917220906,56.535433070866134,635
10,35,70,20,1.5,4.0,437.2441341791066,2.5210823153781843,14.464836949517213,59.64052287581699,612
18,40,65,20,2.5,3.0,677.2091633846057,2.518303442108285,21.554429691864485,64.54918032786885,488
14,30,70,25,1.5,2.5,344.79805415752816,2.513986028651228,14.46119452957726,62.65822784810127,316
10,40,75,15,2.0,3.0,936.8315293589999,2.511291454744301,16.28053543368633,58.6096256684492,935
14,30,65,20,2.5,3.0,363.2037012504332,2.5106778645739833,16.114693630441707,68.9969604863222,329
14,30,65,25,2.0,3.0,267.6923137527405,2.5072162528313138,9.064740693625462,67.94871794871796,234
10,30,75,15,2.0,3.0,723.738476662676,2.501629632262285,14.710596410696287,59.891598915989164,738
18,30,65,25,2.0,3.0,360.4157138945646,2.4984063908705156,11.389765271865265,67.48971193415639,243
14,35,75,15,1.5,3.0,1114.2305277121966,2.490189947318312,16.80713689200748,53.08343409915357,827
10,35,75,15,1.5,2.5,708.3305527903374,2.4878254635380617,16.875453134865857,55.92515592515592,962
10,30,65,20,2.0,2.5,276.783260056392,2.48777792936933,9.573142719258076,64.90765171503958,379
14,30,65,15,2.0,3.0,394.8510110677998,2.485929759366232,14.879425131594958,62.31884057971014,483
14,30,65,25,1.5,3.0,249.2574945635337,2.483429114799471,9.064740693625474,64.87603305785123,242
18,30,70,15,2.0,4.0,854.3718434213423,2.478272465659967,11.389765271865295,56.80851063829787,470
14,30,70,25,2.0,3.0,373.46090197816994,2.4780609222869474,12.020878256086547,65.7439446366782,289
18,30,70,20,2.5,4.0,846.4147649820871,2.4779992780393263,21.55442969186447,63.46666666666667,375
18,30,65,20,2.0,2.5,422.2789663469445,2.4755272223757436,14.220547237104567,65.95744680851064,329
10,35,65,20,2.0,3.0,321.0176772307658,2.473753129823221,9.066282171914935,62.55230125523013,478
18,35,70,20,2.0,3.0,837.475128801686,2.473173805505907,15.9162619918405,59.35727788279773,529
10,30,70,20,2.0,4.0,406.87741384486014,2.46902802781293,12.024624589760215,63.39869281045751,459
14,40,70,20,2.0,3.0,704.7980405642451,2.468409497671708,16.33211670209656,61.82108626198083,626
18,35,65,25,1.5,2.5,351.77467308815255,2.4681334631177827,14.602887551037592,64.35643564356435,303
10,40,70,20,2.0,4.0,494.7752772970902,2.4659427991676046,13.281257901613635,61.97836166924265,647
10,40,75,15,1.5,2.5,754.6562320851726,2.465870479867983,11.25180442724166,55.51366635249765,1061
14,35,75,15,2.0,4.0,1338.7920934567721,2.4596710524516445,17.42958340307402,54.25685425685426,693
14,35,65,25,2.0,2.5,274.8971634830131,2.458805955917995,9.06474069362547,65.81818181818181,275
14,35,70,25,2.0,2.5,372.6603424465575,2.4581170822687595,10.90527812165803,64.1566265060241,332
18,35,70,15,2.5,4.0,1215.1976193402436,2.457327727129821,22.008285915471422,59.85663082437276,558
14,40,70,20,2.5,4.0,833.0945796405182,2.4555295329651012,15.67582766721515,64.21052631578948,570
18,35,70,25,1.5,2.5,513.204267166053,2.4486686222770904,14.60288755103749,57.1764705882353,425
18,30,65,15,2.0,3.0,472.0200879010725,2.4471230405560638,14.220547237104537,62.4390243902439,410
14,30,75,25,1.5,4.0,703.4909827359793,2.446924204509385,14.60288755103753,55.92417061611374,422
14,40,65,20,2.5,4.0,520.1884823861346,2.4433810006995054,15.675827667215172,65.89147286821705,516
10,35,65,20,1.5,2.5,288.359312892652,2.44337091469611,8.79592324681985,60.71428571428571,504
14,35,70,20,2.5,3.0,574.0921774459738,2.440247611651723,15.67582766721515,66.52542372881356,472
14,40,65,20,2.0,2.5,443.58912491446097,2.438924476238803,15.59334720048146,64.0,550
18,35,70,15,1.5,2.5,774.9282087615596,2.437750548740566,14.602887551037538,53.835978835978835,756
18,30,65,25,1.5,2.5,311.44540007595367,2.4376669139329437,14.602887551037574,65.38461538461539,260
18,35,65,25,2.5,4.0,421.84220172660946,2.4366059404189473,21.55442969186449,69.88416988416989,259
14,35,75,20,2.0,4.0,1075.5249605321567,2.433982272478899,14.852780881576239,56.271186440677965,590
10,40,65,20,2.0,4.0,347.4122038012136,2.433151735637364,11.799162538550178,63.212435233160626,579
18,40,70,25,1.5,2.5,513.2763141857891,2.4324012669248614,14.602887551037533,54.52631578947369,475
14,30,70,25,2.0,2.5,350.7734507652721,2.4299987313185203,12.020878256086547,65.08474576271186,295
10,30,75,20,2.0,3.0,557.9618595956474,2.4288866502862034,14.792923498570362,59.44055944055944,572
14,30,75,20,1.5,3.0,808.3069856843222,2.4242417113657173,14.602887551037558,54.15282392026578,602
10,35,75,20,2.0,3.0,634.19562030883,2.4229544748187433,15.135163690520681,58.45921450151057,662
14,40,70,20,1.5,2.5,564.1515823794778,2.4213700064602373,9.416870096926381,58.88252148997135,698
14,30,65,25,2.0,2.5,248.35564025211082,2.418325238371088,9.064740693625462,67.09401709401709,234
14,30,70,20,2.5,3.0,541.8782714605077,2.404180410418471,17.294205973431538,68.5929648241206,398
18,40,70,15,2.5,4.0,1324.6988468290126,2.403189910623825,24.741223799166896,58.231707317073166,656
10,30,65,20,2.5,3.0,275.2271353753351,2.4029630606587977,9.990664989205193,66.39118457300276,363
18,35,70,25,2.5,4.0,668.9497905928799,2.4029307846997923,21.554429691864474,62.99694189602446,327
18,35,65,20,2.5,2.5,507.54332580006746,2.400885669517424,21.554429691864467,67.40196078431373,408
14,30,75,20,2.0,4.0,961.7803950550261,2.39979026071897,14.85278088157622,56.40535372848948,523
14,35,65,20,2.5,2.5,356.3634580631178,2.397071933083699,15.675827667215142,66.50366748166259,409
10,30,70,15,2.5,3.0,526.3284935697889,2.3951451101765104,20.88938127940389,65.26655896607431,619
14,30,65,25,1.5,2.5,231.27895237157497,2.393842360365195,9.064740693625474,64.0495867768595,242
18,40,65,25,2.0,3.0,391.77005880798043,2.392845144241423,14.633087369946743,64.02439024390245,328
14,30,65,20,2.5,2.5,326.9678906404009,2.39255649854153,16.114693630441707,68.38905775075987,329
14,35,70,20,2.0,2.5,475.54382619724186,2.3889127168340063,16.574410756832997,62.93436293436293,518
10,35,75,20,1.5,2.5,516.498065674441,2.387972344246009,14.464859172209046,55.407209612817084,749
18,40,70,25,2.5,4.0,713.1164623116746,2.3790544927605395,21.55442969186452,60.82191780821918,365
18,35,70,25,2.0,3.0,536.942674712684,2.3789203569264394,11.389765271865292,60.43956043956044,364
18,40,65,15,2.0,3.0,693.9205841699758,2.3783043655363985,17.80967043525604,59.69101123595506,712
18,40,65,25,2.5,4.0,437.4407338294165,2.3768336510142465,21.55442969186447,66.996699669967,303
14,40,65,20,2.5,3.0,462.2517111261604,2.3758400260085533,15.675827667215156,65.89147286821705,516
10,30,70,15,2.0,2.5,444.60448201848317,2.3747899379779516,15.345533435280942,61.92660550458715,654
10,30,70,20,1.5,3.0,323.73985666458725,2.373213944856953,14.464836949517206,59.83935742971887,498
10,40,75,20,2.0,3.0,661.263076686125,2.372652512543518,16.271682384483842,57.67690253671562,749
10,40,70,15,2.5,3.0,607.8782152175604,2.368568484360497,13.457928303551231,63.518299881936244,847
14,40,65,25,1.5,4.0,303.0195381072022,2.367394455933249,9.064740693625497,61.038961038961034,385
14,30,65,15,2.5,4.0,410.6728083632738,2.3629287984187557,16.254927430601096,64.98905908096279,457
14,40,70,15,2.5,4.0,967.2225503690399,2.3613883831430753,17.864219743576918,61.37281292059219,743
14,40,70,25,2.0,4.0,462.29719451686844,2.3606181663066392,10.905278121658037,60.48192771084337,415
10,40,70,20,2.5,4.0,489.07933013621755,2.360301079278083,12.072433418151947,64.6103896103896,616
18,30,65,25,2.5,4.0,360.3964345998824,2.359926150092159,21.554429691864467,70.92511013215858,227
10,35,70,20,2.0,4.0,422.64449439511037,2.3596950464099793,13.727870204634145,62.72401433691756,558
10,40,75,20,1.5,2.5,548.4492264660785,2.357883595390884,9.416870096926393,54.1371158392435,846
14,40,70,25,1.5,3.0,393.6843850917637,2.3576647547054224,9.416870096926399,57.98687089715536,457
14,35,70,25,2.5,4.0,405.83590442930546,2.3522971651315285,16.867743209430003,66.66666666666666,303
10,40,75,25,1.5,4.0,441.3003446814719,2.3503796611291934,9.416870096926376,55.55555555555556,585
10,35,70,20,1.5,3.0,369.3777606434356,2.3450997868350214,14.464836949517213,59.47712418300654,612
14,30,65,15,2.0,2.5,346.30642733632226,2.3442841012657265,14.879425131594953,61.904761904761905,483
18,30,65,15,2.5,4.0,510.6934143058996,2.3430154902679954,22.30574706032449,65.53524804177546,383
18,35,65,15,2.5,3.0,587.677484738978,2.340752381808157,22.30574706032452,65.16007532956685,531
18,30,65,20,2.5,2.5,397.23589072802787,2.3383052567498313,21.554429691864517,69.6078431372549,306
10,40,65,15,2.5,2.5,421.2252776890932,2.336531733418488,14.506220474257226,62.28070175438597,798
18,35,65,25,2.0,2.5,333.54968367723126,2.3333555123473846,11.389765271865256,66.07142857142857,280
14,35,65,15,2.5,2.5,410.0069143770238,2.332832663666191,16.936401518172183,63.931623931623925,585
18,40,70,20,1.5,2.5,656.4238622007022,2.3275891980158994,14.602887551037524,53.16455696202531,711
18,35,70,15,2.0,3.0,819.9728106050537,2.3245822271359473,15.916261991840495,56.9620253164557,632
10,35,65,20,2.5,4.0,308.8523796061341,2.3240678983205214,10.613797110480562,64.4880174291939,459
10,40,65,20,1.5,2.5,284.79179915273977,2.3229168176210684,10.325687662620584,61.12026359143328,607
10,35,70,15,2.5,3.0,571.4855008063463,2.320623577725753,20.62179930649673,64.42953020134227,745
10,30,65,20,2.5,2.5,256.2773893605084,2.3192015395785273,9.990664989205193,66.11570247933885,363
14,40,75,15,2.0,4.0,1314.7772267999887,2.3165191097054856,17.38046332510726,53.12101910828025,785
10,35,75,15,2.5,3.0,803.9740222075784,2.315395014161415,18.640794275494688,61.375,800
18,30,70,20,2.0,3.0,592.4396946833755,2.3131106757723887,14.220547237104537,60.141509433962256,424
18,35,65,15,2.0,2.5,518.5032217276179,2.3105182538285494,14.220547237104572,61.03448275862069,580
14,40,65,15,2.0,2.5,483.9046385226907,2.3078590918297683,15.593347200481475,62.335958005249346,762
14,35,75,25,1.5,3.0,595.3722042929253,2.3046038914161873,14.602887551037558,55.69620253164557,474
14,40,70,15,2.0,3.0,733.7723099846418,2.3037486962668106,16.332116702096624,58.62913096695227,817
14,35,75,25,2.0,4.0,683.6695239115315,2.3013497198078934,16.181375905462126,57.21153846153846,416
10,35,70,15,2.0,2.5,472.5694473094716,2.3008669457276802,15.059200076433289,61.33162612035852,781
10,30,75,15,2.5,3.0,682.4119484375856,2.3008165534432137,19.57326229139891,62.882096069869,687
14,40,75,20,2.0,4.0,1097.013769977449,2.2930576398297835,14.852780881576223,54.55861070911722,691
10,30,70,20,2.5,4.0,396.70153512871093,2.292908245742755,17.451244446151996,66.51270207852194,433
14,30,70,15,2.0,2.5,480.965821700212,2.2891124982038824,14.304264947325649,59.9644128113879,562
14,40,65,15,2.5,3.0,538.8582840886717,2.2885871291468116,18.645769990329942,64.48467966573817,718
18,40,65,20,2.0,2.5,495.52950512113784,2.2867045817837366,14.634406815018444,61.247637051039696,529
18,35,65,25,2.5,3.0,353.5023191824343,2.286049349971193,21.554429691864478,70.11494252873564,261
14,30,75,15,2.0,4.0,982.9372512702333,2.2835595248672185,17.42958340307398,54.31893687707641,602
18,30,70,25,1.5,2.5,396.83762428533754,2.2829048103044847,14.602887551037552,58.24175824175825,364
10,35,75,20,2.5,3.0,641.5501431366657,2.27867384469853,17.451265892952232,61.22778675282714,619
18,30,65,25,2.0,2.5,290.60385434045384,2.2766047177673765,11.38976527186528,66.66666666666666,243
10,40,65,20,2.0,3.0,298.70429750483015,2.275903341012961,11.799162538550185,63.03972366148531,579
10,35,65,20,2.0,2.5,267.36294823270686,2.2734174184098848,9.066282171914905,61.92468619246861,478
10,30,75,20,2.5,3.0,553.2432038935603,2.2721094718523163,17.451265892952254,63.1578947368421,532
10,40,70,20,2.0,3.0,405.71726344015593,2.2719516971588742,13.28125790161361,61.82380216383307,647
10,35,75,25,1.5,4.0,367.5589564044608,2.271693789327809,14.464859172209046,57.03125,512
10,40,70,15,2.0,2.5,487.63681086923975,2.267961851701373,12.604149380717395,60.51743532058492,889
10,30,70,20,2.0,3.0,332.7887744342517,2.266826777700708,12.024624589760204,63.39869281045751,459
14,35,70,15,2.5,3.0,592.1722453891994,2.2634049341332294,21.5454344876188,62.0414673046252,627
18,30,70,15,1.5,2.5,532.0357053217575,2.2621393893805384,14.602887551037567,54.982206405693944,562
18,40,70,25,2.0,3.0,519.5729594112897,2.2560217815356474,14.944556810658224,57.94621026894865,409
10,40,70,20,1.5,2.5,350.6077030545375,2.251254046274733,9.416870096926393,58.92351274787535,706
18,40,65,25,2.5,3.0,349.3962823806745,2.2373262796401483,21.554429691864474,67.10097719869707,307
14,40,65,25,1.5,3.0,259.47978955352704,2.23467658655361,9.064740693625497,60.51948051948052,385
14,40,75,25,1.5,4.0,683.2472664260675,2.2338179231838886,15.221087193921075,52.44755244755245,572
10,35,65,20,2.5,3.0,281.4057211847689,2.233472829289089,10.613797110480533,64.4880174291939,459
10,35,70,20,2.0,3.0,370.9514810891055,2.232847226126642,13.727870204634126,62.72401433691756,558
14,35,65,25,2.5,4.0,246.46025947400565,2.2252778116622305,15.675827667215145,67.42424242424242,264
14,35,70,15,2.0,2.5,497.37172594997696,2.222372843915323,16.57441075683299,58.54014598540146,685
14,40,65,25,2.0,4.0,289.10671615271633,2.2222696341741863,9.175814064097246,62.290502793296085,358
10,30,70,20,1.5,2.5,282.21913292013585,2.221891059467341,14.464836949517206,59.519038076152306,499
10,40,65,20,2.5,4.0,319.68855179352136,2.2195811182888265,12.209613680020096,63.73429084380611,557
14,30,70,20,2.5,2.5,440.41861398802666,2.2120885630208362,17.294205973431513,68.07980049875312,401
18,35,70,20,2.5,3.0,688.6248144015914,2.20798013292407,21.5544296918645,61.20331950207469,482
10,30,70,15,2.5,2.5,433.0500285478446,2.2067180942160487,20.88938127940389,64.6774193548387,620
10,40,75,20,2.5,3.0,616.837143649727,2.2057992689301695,12.072433418151945,59.971509971509974,702
18,30,70,25,2.5,4.0,497.1900707877871,2.2031651777185703,21.554429691864488,63.50877192982456,285
18,30,65,25,2.5,3.0,300.0814288906843,2.2010844772948577,21.55442969186449,71.05263157894737,228
18,30,70,25,2.0,3.0,404.87145490682036,2.185243927960393,11.38976527186527,60.691823899371066,318
18,40,70,20,2.0,3.0,681.6411983694704,2.183667913141381,16.416122364660463,56.81444991789819,609
10,40,75,15,2.5,3.0,714.4361778484314,2.1753109696922053,12.632717105542405,60.27241770715096,881
10,30,75,15,2.0,2.5,494.6103602964475,2.171003415620844,15.312842181505271,59.73154362416108,745
14,35,65,25,2.5,3.0,234.09749405730742,2.169975754538886,15.675827667215145,67.42424242424242,264
18,40,65,20,2.5,2.5,469.1369163207567,2.168028484906652,21.55442969186448,63.28600405679513,493
14,30,65,15,2.5,3.0,315.85609443245863,2.1665854122183403,16.254927430601075,64.33260393873084,457
10,40,70,20,2.5,3.0,395.5011555214409,2.1612914570055084,12.07243341815195,64.44805194805194,616
14,35,70,25,2.5,3.0,325.09185635506947,2.152716964294831,16.867743209429946,66.88524590163935,305
10,30,75,20,2.0,2.5,409.1311603810938,2.1525409126280173,15.394587941120374,59.44540727902946,577
14,40,65,20,2.5,2.5,367.48749933221336,2.151941472721645,15.675827667215161,65.05791505791507,518
10,40,75,25,1.5,3.0,351.91863958346346,2.1502221968608026,9.416870096926376,54.93197278911565,588
14,35,75,15,2.5,4.0,1006.1658856132962,2.142409596999383,23.679500408962074,57.18849840255591,626
18,30,70,15,2.5,4.0,659.4597852118491,2.1421204458205643,22.008285915471408,59.76744186046512,430
14,30,75,25,2.0,4.0,551.7042509615209,2.1411407573117955,16.18137590546213,57.32984293193717,382
14,40,70,15,1.5,2.5,528.5271404760441,2.137730337244072,11.411939324220887,56.161395856052344,917
14,30,75,15,1.5,3.0,657.5943978088721,2.134826596752322,16.80713689200749,52.07756232686981,722
18,35,70,25,2.0,2.5,402.94454851656775,2.132853139659144,11.3897652718653,59.94694960212201,377
18,30,65,15,2.0,2.5,337.73717889179204,2.1321433419796887,14.220547237104519,61.59420289855072,414
18,35,70,20,2.0,2.5,532.9543964565179,2.1312704288704194,16.574410756832958,58.58951175406871,553
10,30,75,25,1.5,4.0,285.12508029419104,2.129019234286543,14.464859172209046,58.3732057416268,418
10,30,70,20,2.0,2.5,288.9015574539421,2.128917062745263,12.024624589760204,63.26086956521739,460
14,35,70,20,2.5,2.5,408.3907253961778,2.1253159709564446,15.675827667215136,65.6842105263158,475
14,40,70,25,1.5,2.5,304.31770772541756,2.125128359599176,9.416870096926392,57.93991416309014,466
14,30,70,15,2.5,3.0,479.17752057798657,2.124213274178223,18.65781712346933,63.42412451361867,514
10,35,75,15,2.0,2.5,526.3030644537637,2.1141619919735284,15.74332136345458,58.67287543655413,859
14,30,75,25,1.5,3.0,461.2872453433337,2.113217469965799,14.602887551037567,54.96535796766744,433
18,35,75,15,1.5,4.0,999.2046689648491,2.110522726593514,25.200769011983787,46.883468834688344,738
14,40,70,25,2.0,3.0,347.42824430833275,2.1085411118792026,14.577084174496502,60.28708133971292,418
14,40,75,20,1.5,3.0,712.334553491709,2.1085086255233687,14.97770070909324,51.98511166253101,806
18,40,70,15,1.5,2.5,601.4299135321842,2.1041961831388116,16.80713689200746,51.521984216459984,887
10,30,70,20,2.5,3.0,323.9776046617977,2.1011214762207255,17.451244446151982,66.51270207852194,433
18,30,70,20,2.0,2.5,433.5077240273204,2.090545842751072,14.654651807727465,59.77272727272728,440
10,35,70,20,2.5,4.0,376.5763732852702,2.088557143454689,17.451244446152,65.09433962264151,530
14,40,65,25,1.5,2.5,227.10872541935694,2.0881643343746483,9.064740693625458,60.259740259740255,385
18,30,70,20,2.5,3.0,508.47844275847433,2.086535948305592,21.554429691864488,63.020833333333336,384
18,35,65,25,2.5,2.5,286.5075498082773,2.0844835833981796,21.554429691864495,68.93939393939394,264
14,40,70,20,2.0,2.5,448.86690284568465,2.0839672805282357,16.987010446909665,61.224489795918366,637
14,35,75,20,2.5,4.0,781.8405211796027,2.081251039493623,21.554429691864467,59.056603773584904,530
18,40,65,25,2.0,2.5,286.73581763794334,2.079735162236258,14.633087369946743,62.61398176291794,329
14,30,70,25,2.5,4.0,320.262763697665,2.077302895066,18.17308383578282,67.91044776119402,268
14,40,70,20,2.5,3.0,509.26901351882464,2.07687405586842,15.675827667215145,63.541666666666664,576
14,40,65,25,2.0,3.0,246.50804239388955,2.071761597865444,14.577084174496513,62.01117318435754,358
10,35,65,20,2.5,2.5,241.48325955043956,2.0704761479331815,10.613797110480533,63.834422657952075,459
18,30,65,15,2.5,3.0,343.35511149159015,2.069820704715239,22.305747060324464,65.37467700258398,387
18,40,65,15,2.5,3.0,520.0592144454231,2.0639482866398193,25.634986474827148,62.01201201201201,666
10,35,70,20,1.5,2.5,279.41900373533895,2.0629035931750956,14.46483694951723,58.79478827361564,614
14,40,75,15,1.5,3.0,751.1190665480603,2.0527577659791216,16.807136892007506,50.95948827292111,938
18,35,70,25,2.5,3.0,438.78258947458625,2.0504296239292428,21.5544296918645,62.65060240963856,332
10,40,65,20,2.0,2.5,239.13774363877906,2.0488379838829203,11.799162538550192,62.17616580310881,579
10,40,70,25,1.5,4.0,237.55963882709946,2.0487735058113343,9.416870096926374,59.66386554621849,476
14,35,65,25,2.5,2.5,209.99523576999061,2.0474069446339693,15.675827667215145,66.66666666666666,264
18,40,70,25,2.5,3.0,457.2155046656311,2.045221979818571,21.554429691864485,60.97560975609756,369
10,40,65,20,2.5,3.0,267.0155391701019,2.044242785125939,12.209613680020114,63.55475763016158,557
10,40,65,25,1.5,4.0,166.38955677341983,2.0402155306063405,5.82787048229241,60.76923076923077,390
18,30,75,20,1.5,4.0,719.4547402551849,2.038848406206141,25.200769011983787,47.99270072992701,548
10,35,75,25,1.5,3.0,284.19433138477893,2.03583028953552,14.464859172208994,56.310679611650485,515
14,35,70,25,2.5,2.5,286.6799446780529,2.0281884226896842,16.86774320942996,66.12377850162866,307
14,30,65,25,2.5,4.0,192.5847662294891,2.021963663186343,15.675827667215133,69.19642857142857,224
14,30,65,25,2.5,3.0,192.5847662294891,2.021963663186343,15.675827667215133,69.19642857142857,224
14,30,75,20,2.5,4.0,707.6368483922149,2.0204256200022717,21.554429691864474,59.52890792291221,467
18,40,70,20,2.5,3.0,613.9157623811043,2.0195598636487775,21.554429691864474,59.92714025500911,549
18,35,75,20,1.5,4.0,825.8137314380563,2.0189808695780163,25.200769011983855,47.032640949554896,674
10,40,70,15,2.5,2.5,406.2220144603608,2.0151310776909215,14.09876786302378,62.23529411764706,850
18,35,65,15,2.5,2.5,408.2524889923971,2.0137298310093463,21.557926129838027,64.19294990723562,539
14,40,65,15,2.5,2.5,397.57060664253754,2.012809410026408,18.64576999032995,63.80027739251041,721
10,35,75,20,2.0,2.5,393.69146028879317,2.0055703144081694,16.877957771135858,57.82414307004471,671
18,40,65,25,2.5,2.5,280.14822295778004,2.0052153360240608,21.554429691864478,65.69579288025889,309
18,30,65,25,2.5,2.5,244.56384191338833,2.0035907205349175,21.55442969186449,69.73684210526315,228
18,30,70,15,2.0,3.0,459.2801961675275,1.9984967398950237,14.220547237104562,57.02479338842975,484
14,30,65,15,2.5,2.5,267.3829864692933,1.9979483345479514,16.254927430601107,63.97379912663755,458
10,40,75,15,2.0,2.5,499.0489702131294,1.9966687576719608,16.871695546755543,57.94491525423729,944
10,30,75,20,2.5,2.5,403.1818121509024,1.995798088579608,17.45126589295223,62.92134831460674,534
14,40,75,25,2.0,4.0,559.9568074844221,1.9858617168939798,16.13151328492227,54.07554671968191,503
14,40,75,20,2.5,4.0,826.1359090004908,1.9845862476451706,21.55442969186448,57.23577235772358,615
10,30,75,25,2.0,4.0,274.0387207753781,1.978778211842428,12.203881839604422,60.77922077922078,385
10,40,75,25,2.0,4.0,340.12642848081424,1.9749823754231168,10.905278121658032,57.79467680608364,526
10,35,70,20,2.5,3.0,329.3155923812564,1.9687751957080184,17.45124444615203,65.09433962264151,530
14,35,75,20,1.5,2.5,474.7373425212231,1.9684129243379838,14.602887551037547,54.68531468531469,715
14,35,75,25,1.5,2.5,386.11240576698015,1.9644499285226626,14.602887551037533,56.024096385542165,498
10,40,65,25,1.5,3.0,155.11782446716583,1.958925036563546,5.8278704822924015,60.256410256410255,390
18,30,70,25,2.0,2.5,308.7448751525301,1.9566847791380968,11.389765271865269,60.36585365853659,328
10,30,75,15,2.5,2.5,452.72381178645514,1.9566731056869027,20.589136356163216,62.42774566473989,692
10,30,70,20,2.5,2.5,279.469010039891,1.9562106383735798,17.451244446151982,66.12903225806451,434
10,40,70,20,2.0,2.5,288.72896701203916,1.9554841485155166,13.281257901613607,60.708782742681045,649
10,35,70,15,2.5,2.5,377.92486142956346,1.9539818762954093,20.62179930649673,63.186077643908966,747
14,40,75,15,2.5,4.0,898.4903729722157,1.948357481923256,23.679500408962063,55.92011412268189,701
14,35,75,15,1.5,2.5,540.0179932365223,1.9473080623017158,16.807136892007463,52.73573923166472,859
14,30,75,20,1.5,2.5,433.767986310275,1.9453072509417697,14.602887551037561,53.82165605095541,628
14,35,75,25,2.5,4.0,502.26794028299065,1.9424017428696965,21.554429691864485,59.523809523809526,378
10,35,70,20,2.0,2.5,273.35566272606485,1.9394951779668916,13.727870204634085,61.78571428571429,560
18,30,75,15,1.5,4.0,665.7681667406308,1.9289528467562542,25.200769011983898,47.217537942664414,593
14,40,70,25,2.5,4.0,334.0130329234085,1.927019586775615,16.86774320942998,62.30366492146597,382
14,30,65,25,2.5,2.5,176.12028251624957,1.9258564186977574,15.675827667215133,68.30357142857143,224
18,40,75,15,1.5,4.0,856.2209398546072,1.9232316661143585,27.131468433570603,43.89359129383313,827
18,40,65,15,2.0,2.5,408.9282163644785,1.9180492671411682,17.018573971791458,58.64453665283541,723
18,30,75,25,1.5,4.0,550.1193314134941,1.9169221073383425,25.20076901198381,48.46491228070175,456
18,35,70,15,2.5,3.0,554.3778335058722,1.9160767113872434,22.00828591547143,59.30434782608695,575
14,30,70,25,2.5,3.0,264.86866978627774,1.9139888629229722,18.17308383578282,68.02973977695167,269
10,35,75,25,2.0,4.0,291.1936073644416,1.913438644740028,12.024647446437909,58.658008658008654,462
14,30,75,15,2.5,4.0,698.2317615046317,1.9116751545062562,23.679500408962127,57.4585635359116,543
10,30,75,25,1.5,3.0,228.17220221512292,1.9042180773841135,14.464859172209046,57.85714285714286,420
18,40,70,25,2.0,2.5,341.8310453181284,1.9009692759962933,14.944556810658213,56.872037914691944,422
10,40,75,20,2.0,2.5,379.48520205502217,1.9008373010767754,16.862905010728266,56.76392572944297,754
18,35,70,15,2.0,2.5,467.9729485275486,1.8984800974588705,16.574410756832997,56.278366111951584,661
18,35,75,25,1.5,4.0,594.4718751755871,1.898262600983321,25.200769011983787,48.05194805194805,539
14,35,75,20,2.0,3.0,523.8198117119155,1.8981297212064634,20.0936427136994,56.372549019607845,612
18,35,75,15,2.0,4.0,828.9177616102766,1.8980604992971366,20.669400663388014,49.673202614379086,612
18,40,70,15,2.0,3.0,557.8128571275352,1.897987200640895,16.95546694574711,54.13333333333333,750
14,35,70,15,2.5,2.5,386.88647515767224,1.8953381453339782,21.886480475974263,61.137440758293835,633
14,30,70,15,2.5,2.5,364.99392569272555,1.8876906235310276,19.200373681094206,63.005780346820806,519
14,35,75,25,2.0,3.0,398.8794590813276,1.8819908380920483,16.1813759054622,57.242990654205606,428
14,40,70,25,2.0,2.5,266.9579343655526,1.8817357620754445,14.609023194014506,60.0,425
10,30,65,25,1.5,4.0,128.71263734478194,1.8788464311118778,10.241947521941176,59.84251968503938,254
10,40,70,25,1.5,3.0,201.5370013837374,1.8784477758329967,9.416870096926374,59.03361344537815,476
10,35,70,25,1.5,4.0,191.05048353919943,1.8654776628015681,14.464836949517206,59.036144578313255,415
10,40,75,25,2.5,4.0,340.70138203232216,1.8631686042872375,12.072433418151954,60.86065573770492,488
18,30,70,25,2.5,3.0,330.43586832556485,1.8627631950960255,21.554429691864506,63.32179930795848,289
18,40,75,25,1.5,4.0,608.2374521480522,1.860558963917122,25.200769011983827,46.2457337883959,586
14,40,70,15,2.0,2.5,422.25919764510513,1.8578306254832635,16.987010446909682,57.850241545893724,828
10,35,65,25,1.5,4.0,143.7927413449281,1.8577176557516248,8.544572558372247,59.411764705882355,340
10,40,75,25,1.5,2.5,257.4428618748459,1.8573897503612624,9.41687009692639,54.18060200668896,598
10,40,65,20,2.5,2.5,220.32944109670413,1.8571383702435165,12.209613680020114,62.65709156193896,557
10,35,75,20,2.5,2.5,385.74568971411514,1.8541017886200999,17.451265892952254,60.09615384615385,624
18,40,75,20,1.5,4.0,733.1440542672924,1.852804117870564,25.20076901198379,44.44444444444444,747
14,40,65,25,2.0,2.5,197.7091503234429,1.8439739738354008,14.609023194014506,61.55988857938719,359
10,30,75,25,2.5,4.0,282.3047418613785,1.839183103097726,18.807874209224455,64.87252124645893,353
10,40,65,25,2.0,4.0,149.39057250569786,1.8348610301508508,6.084294735529105,62.22826086956522,368
14,40,75,25,1.5,3.0,393.9403138571088,1.8332476277808385,15.221087193921049,51.53061224489795,588
10,40,70,20,2.5,2.5,273.06586655105167,1.8260789584618646,12.072433418151965,62.944983818770226,618
14,30,75,20,2.0,3.0,454.9897192972049,1.824341125569103,18.486717482647258,55.94795539033457,538
18,30,75,20,2.0,4.0,601.3658296052068,1.823021023875902,21.40582715257328,50.21459227467812,466
14,30,70,25,2.5,2.5,239.89351001655498,1.8223792821647824,18.17308383578282,66.91176470588235,272
18,35,75,20,2.0,4.0,693.5035045372034,1.8176990890645435,20.963391077130485,49.293286219081274,566
14,30,75,25,1.5,2.5,312.56131876916123,1.8174296239108434,15.616378509559055,55.50660792951542,454
18,30,65,15,2.5,2.5,261.5027586984247,1.815199202190979,21.557926129837995,64.35897435897436,390
10,30,75,25,2.0,3.0,228.9190254326178,1.8071340983978765,12.203881839604424,60.880829015544045,386
10,40,70,25,2.5,4.0,219.69481533650196,1.8020072459412813,12.137227811870815,64.33734939759036,415
10,40,65,25,1.5,2.5,133.4405209219789,1.797344063759726,5.827870482292416,59.48717948717949,390
10,40,70,25,2.0,4.0,201.49617003176598,1.7972729032038526,12.561237828962454,60.91954022988506,435
14,40,70,15,2.5,3.0,442.34325670314297,1.7931051000774232,24.185443606389377,60.61007957559682,754
14,35,75,15,2.0,3.0,516.9249475779621,1.7917842316908743,21.259702203705505,54.1838134430727,729
14,40,65,25,2.5,4.0,211.81655421416656,1.789857486736053,15.67582766721516,64.20118343195266,338
10,35,75,25,2.5,4.0,302.6642641297128,1.7875514409017599,17.451265892952236,62.004662004662,429
14,40,65,25,2.5,3.0,201.22942218816004,1.7874797293645301,15.67582766721515,64.20118343195266,338
10,35,75,15,2.5,2.5,411.6784418305155,1.782743313572767,18.998272566530794,60.148514851485146,808
10,40,75,20,2.5,2.5,361.7127460532503,1.773332972596111,12.072433418151936,58.640226628895185,706
10,30,75,25,1.5,2.5,196.95581694502232,1.7694505884190879,14.464859172209078,57.61124121779859,427
10,35,65,25,1.5,3.0,131.71897662714233,1.7636190506403568,8.544572558372247,59.11764705882353,340
18,35,70,20,2.5,2.5,389.3437411939323,1.76262629795538,21.55442969186448,60.44176706827309,498
10,35,75,25,1.5,2.5,212.93785752914357,1.7616569300909324,14.464859172209039,55.25812619502868,523
18,40,70,20,2.0,2.5,390.642715725855,1.7606452683321334,17.07035857182867,56.19047619047619,630
10,35,70,25,2.0,4.0,188.17076620127216,1.7573109201193986,12.46140749538099,61.80371352785146,377
14,30,75,15,1.5,2.5,389.57382798923186,1.7570551175134985,17.30371206961567,51.866666666666674,750
10,30,70,25,1.5,4.0,153.69735587970746,1.7569870826401282,15.274659053552654,59.38461538461538,325
14,40,70,20,2.5,2.5,344.3585618334668,1.756748177628959,15.675827667215136,62.88659793814433,582
18,30,75,15,2.0,4.0,572.1723943741977,1.7500605387231245,22.044034705475752,49.59514170040486,494
10,30,65,25,1.5,3.0,113.40197249350209,1.7388602186667765,10.241947521941176,59.4488188976378,254
18,35,70,25,2.5,2.5,297.0168909888691,1.7347916793128852,21.554429691864488,61.98830409356725,342
10,40,65,25,2.0,3.0,135.14983451799566,1.7344239578689726,6.084294735529118,61.95652173913043,368
18,30,75,25,2.0,4.0,464.3294382573032,1.7326314780413385,19.527940087180003,50.76142131979695,394
14,30,75,25,2.5,4.0,392.6133451478917,1.7295504976563916,22.276341333392832,59.883720930232556,344
18,30,70,20,2.5,2.5,322.75558420327434,1.725126234162693,21.554429691864485,62.43654822335025,394
10,30,65,25,2.0,4.0,123.71743977735996,1.7235292708696894,11.301120921749112,62.5,240
14,40,70,25,2.5,3.0,252.45768879920917,1.7190964454879674,16.86774320942997,62.17616580310881,386
10,40,75,25,2.5,3.0,277.0117786433883,1.7104553139485392,12.072433418151945,60.61224489795919,490
10,30,65,25,1.5,2.5,110.42456666160835,1.7089802274287647,10.241947521941176,59.055118110236215,254
10,40,75,25,2.0,3.0,249.14036352909125,1.7079073413468913,15.272938874475212,57.685009487666036,527
14,30,75,25,2.0,3.0,316.1203825132725,1.7050037236654607,16.181375905462122,56.92307692307692,390
10,35,65,25,2.0,4.0,134.53039470094814,1.7013545785037334,9.066282171914974,61.0062893081761,318
18,30,70,15,2.5,3.0,350.0521634258544,1.6997142313862104,22.008285915471387,59.63718820861678,441
18,40,70,15,2.5,3.0,468.41093550197667,1.698243859720267,24.741223799166946,57.80089153046062,673
18,40,70,25,2.5,2.5,298.7205479290678,1.6952492263774168,21.55442969186449,60.20942408376963,382
18,30,70,15,2.0,2.5,305.2089274173016,1.695018483337915,15.64034360842855,56.97211155378486,502
10,40,75,15,2.5,2.5,380.863973940781,1.6945043462213327,12.632717105542419,59.21348314606741,890
10,40,65,25,2.5,4.0,140.73094837906334,1.6906611812609997,6.94577979795476,63.94366197183099,355
18,35,75,25,2.0,4.0,484.0051083747116,1.689427060876729,18.83574294932053,50.76586433260394,457
18,40,65,15,2.5,2.5,331.7383325109058,1.6855466255642975,24.919210062726098,61.011904761904766,672
10,35,70,25,1.5,3.0,159.1862352502921,1.6840039537868081,14.464836949517206,58.554216867469876,415
10,30,75,25,2.5,3.0,234.25540561227405,1.6782397508670386,18.807874209224458,64.97175141242938,354
10,35,70,20,2.5,2.5,236.45992780425522,1.6764636326724318,17.45124444615203,63.90977443609023,532
18,40,75,15,2.0,4.0,653.0101318360619,1.6729699159170992,22.874648678270685,46.78111587982833,699
18,40,75,20,2.0,4.0,611.8373499469668,1.6677460055417874,19.320963568258474,47.409733124018835,637
14,40,65,25,2.5,2.5,177.3038771320089,1.6667575118884472,15.675827667215161,63.905325443786985,338
10,40,70,25,2.5,3.0,188.27144153499017,1.662718019953079,12.13722781187083,64.09638554216868,415
10,35,75,25,2.0,3.0,218.52321139215562,1.661974082526471,14.774116954735852,58.53131749460043,463
10,30,70,25,2.0,4.0,153.97001265276617,1.6558008636382906,12.435150566032881,62.41610738255034,298
10,35,75,25,2.5,3.0,250.70408049703548,1.6512281402869575,17.451265892952264,61.86046511627907,430
14,40,75,20,2.0,3.0,435.3779160332019,1.6510246571631726,19.186049975304137,54.18994413407822,716
10,35,65,25,2.0,3.0,127.31899789342785,1.649164978115709,9.066282171914974,61.0062893081761,318
18,30,75,20,1.5,3.0,389.7986483561678,1.6480544804361916,19.687801551578264,47.403685092127304,597
10,35,70,25,2.0,3.0,167.0438086686745,1.6466192571346474,12.46140749538104,61.80371352785146,377
10,40,70,25,2.0,3.0,170.58651666273207,1.6424300661371882,12.561237828962552,60.689655172413794,435
10,40,70,25,1.5,2.5,157.15281708175218,1.6381591542457232,9.416870096926383,58.07127882599581,477
10,35,65,25,1.5,2.5,116.00403313200329,1.6329369543535082,8.544572558372296,58.235294117647065,340
10,30,65,25,2.0,3.0,112.8648119817919,1.6320787206225735,11.30112092174917,62.5,240
14,30,75,15,2.0,3.0,392.46854496658744,1.6295850884671002,19.142180094587548,53.712480252764614,633
18,35,75,15,1.5,3.0,453.25947682717384,1.616158366396625,19.687801551578303,46.741854636591476,798
14,40,75,25,2.5,4.0,384.62275235925154,1.6136898580648236,21.55442969186448,56.29139072847682,453
10,30,65,25,2.5,4.0,118.07670161502924,1.6095736559023297,11.166132685234139,64.60176991150442,226
10,30,75,25,2.0,2.5,179.73471805441736,1.5978450118332281,13.03772547183285,60.66838046272493,389
18,30,75,20,1.5,2.5,330.6412080280498,1.5887318209247523,19.687801551578293,49.691358024691354,648
10,40,65,25,2.0,2.5,115.94156127732005,1.5845115028145773,6.688409665765667,61.141304347826086,368
14,40,75,15,2.0,3.0,436.0775675128423,1.5844563109846979,19.094078818347615,52.90556900726392,826
18,30,75,15,1.5,3.0,378.7312025428406,1.5823907198626381,19.687801551578318,46.71875,640
10,35,70,25,2.5,4.0,180.5312785964635,1.5791589849557133,18.108134339950357,64.62395543175488,359
10,40,65,25,2.5,3.0,124.33247300861932,1.5761812003609292,6.9457797979548195,63.66197183098592,355
18,40,75,25,2.0,4.0,442.3838992030546,1.5758053663407057,18.749778929780085,48.118811881188115,505
14,35,75,25,2.0,2.5,263.808541777137,1.575582247860096,16.16117118901212,57.466063348416284,442
14,40,70,25,2.5,2.5,212.73701126641797,1.5734927157761622,16.867743209429957,62.11340206185567,388
10,30,70,25,2.5,4.0,158.56254665314464,1.5623133622908214,17.451244446152042,66.19217081850533,281
10,30,70,25,1.5,3.0,126.03594934366835,1.561696122145276,15.274659053552654,58.769230769230774,325
18,30,75,25,1.5,3.0,315.8487192481955,1.556026807206523,19.687801551578286,47.4,500
18,30,70,25,2.5,2.5,224.33901149667625,1.5554630940474583,21.55442969186448,62.71186440677966,295
10,35,65,25,2.5,4.0,124.98209088509256,1.5478231558273026,10.613797110480597,63.6963696369637,303
10,30,70,25,2.0,3.0,135.53032476271486,1.5385987825552248,12.435150566032933,62.41610738255034,298
18,35,75,20,1.5,3.0,375.4913672072856,1.5204734996705538,19.687801551578303,47.21088435374149,735
14,40,75,15,1.5,2.5,345.939240974124,1.514533022843873,16.807136892007485,50.92213114754098,976
10,30,65,25,2.0,2.5,99.71240215045877,1.514103847342082,11.301120921749172,62.083333333333336,240
14,35,75,20,2.5,3.0,340.5129950721434,1.5108349116580257,26.940909098237082,58.91891891891892,555
14,40,75,20,1.5,2.5,306.40049027727343,1.5050937860968903,15.625546877268617,51.66270783847982,842
14,30,75,25,2.0,2.5,237.76409417052298,1.5049826060445108,16.161171189012062,57.03703703703704,405
10,30,65,25,2.5,3.0,105.07318508917444,1.5024403009562353,11.166132685234231,64.60176991150442,226
14,35,75,25,2.5,3.0,274.8425272202879,1.4972993978406655,21.554429691864456,59.68992248062015,387
14,30,75,20,2.5,3.0,328.52483605200723,1.4941711477832214,25.65500998608935,58.932238193018485,487
10,35,65,25,2.0,2.5,107.66712323148857,1.490889652390302,9.066282171914914,60.062893081761004,318
18,40,70,20,2.5,2.5,302.0469388234082,1.4892104584558006,21.554429691864502,58.90652557319223,567
14,30,75,20,2.0,2.5,277.2949375876507,1.4875067719892947,15.435932719942095,55.53571428571429,560
10,35,70,25,2.5,3.0,161.18940601082096,1.484284567056683,18.108134339950386,64.62395543175488,359
10,35,65,25,2.5,3.0,115.51629825657858,1.4800135692879157,10.613797110480602,63.6963696369637,303
10,40,65,25,2.5,2.5,112.10353901613142,1.4778150663198824,6.945747625446009,63.098591549295776,355
14,40,75,25,2.0,3.0,276.0898364973489,1.4755381878790639,16.13151328492227,54.054054054054056,518
18,35,75,15,2.5,4.0,481.60050176329463,1.4749259765943243,28.510191402695597,52.67034990791897,543
18,35,75,20,2.5,4.0,446.3852613634766,1.4641241106387457,28.510191402695607,51.881188118811885,505
10,35,70,25,1.5,2.5,125.50114164798877,1.463124070157532,14.464836949517256,57.45192307692307,416
10,30,70,25,2.5,3.0,140.91934918491273,1.46186585618427,17.45124444615201,66.19217081850533,281
10,30,75,25,2.5,2.5,180.83796138383136,1.4618581898958904,19.578996423922373,64.32584269662921,356
14,40,70,15,2.5,2.5,277.80282309719047,1.451258921557513,27.116418376562773,59.973753280839894,762
10,40,70,25,2.5,2.5,146.13041512429433,1.4406674528426378,12.137227811870794,62.74038461538461,416
18,30,75,20,2.5,4.0,380.25993140651525,1.435844627918362,28.510191402695582,52.42718446601942,412
14,35,75,15,2.5,3.0,338.9386626184819,1.4340113392510154,23.679500408962088,56.86274509803921,663
10,30,70,25,1.5,2.5,108.72580152087095,1.4240650493515192,15.274659053552654,58.282208588957054,326
10,30,65,25,2.5,2.5,96.43999891593617,1.421209787542173,11.166132685234231,64.15929203539822,226
18,30,75,15,1.5,2.5,276.74101990963584,1.4187883771937093,19.687801551578303,48.939179632248944,707
10,40,75,25,2.5,2.5,192.12350145091125,1.418085383486177,12.072433418151931,59.10931174089069,494
14,40,75,20,2.5,3.0,338.58526847491936,1.415065907417366,22.75630028636169,57.120743034055735,646
18,30,75,25,1.5,2.5,241.43514818331408,1.4088744771563693,19.68780155157834,48.87640449438202,534
14,40,75,25,1.5,2.5,219.5844402503344,1.4080092851699444,14.602887551037552,51.53970826580226,617
18,35,75,25,1.5,3.0,280.9119761952457,1.4063648367902182,19.687801551578314,47.018739352640544,587
10,40,70,25,2.0,2.5,130.30367711463532,1.4049731707633486,12.561237828962469,59.403669724770644,436
10,30,70,25,2.0,2.5,115.44217093784074,1.4028656745472385,12.435150566032938,62.207357859531776,299
10,35,70,25,2.0,2.5,126.77630225937311,1.402098543203461,12.461407495381035,60.317460317460316,378
18,35,70,15,2.5,2.5,269.8135292172749,1.3983549827372774,21.557926129838023,58.52842809364549,598
18,30,75,20,2.0,3.0,300.5250243991742,1.3981420951305783,21.164789269959254,50.66921606118547,523
14,35,75,20,2.0,2.5,251.60860001324875,1.3929552907873344,16.57441075683297,55.88697017268446,637
18,40,75,25,1.5,3.0,282.8497042605453,1.39072975236063,19.68780155157825,45.749613601236476,647
18,35,75,15,1.5,2.5,293.9676125497208,1.3770569440009084,19.687801551578296,47.74266365688488,886
14,30,75,15,2.0,2.5,263.1316803111587,1.3766563742258995,18.335096224285298,53.34346504559271,658
18,40,75,15,1.5,3.0,336.9677904596645,1.3749777321811614,21.760800338364945,44.63894967177243,914
18,40,70,15,2.0,2.5,263.40801870082004,1.3683516216481246,18.408851690008483,53.608247422680414,776
10,35,65,25,2.5,2.5,101.01664454414232,1.3589760217656013,10.613797110480602,62.70627062706271,303
18,40,75,15,2.5,4.0,425.73602091466654,1.35780546426618,30.10545858881922,50.32051282051282,624
18,40,75,20,1.5,3.0,313.38405195816404,1.3575287723495508,19.68780155157829,45.443499392466585,823
10,40,75,25,2.0,2.5,160.03135340870182,1.3484994695177883,16.142552544137402,56.60377358490566,530
10,35,75,25,2.5,2.5,171.21331548369469,1.3482367709845067,17.451265892952232,60.13824884792627,434
10,35,75,25,2.0,2.5,148.54879728204187,1.3462477869322222,16.25304581190766,57.356076759061835,469
14,35,75,15,2.0,2.5,260.7669112387241,1.342711338121984,20.08555192122475,53.77483443708609,755
18,30,75,25,2.0,3.0,248.70498676477553,1.3377377100942993,23.091049862388783,51.4018691588785,428
18,35,75,20,1.5,2.5,262.87631291572893,1.3325306931399779,19.68780155157829,47.654320987654316,810
18,30,75,15,2.5,4.0,331.80082901244134,1.3245175127913034,28.51019140269558,51.35746606334841,442
18,40,75,20,2.5,4.0,382.4637828156203,1.3241101654096972,28.51019140269556,50.0,572
18,35,75,15,2.0,3.0,314.30292491514405,1.3240366587463033,20.645680309727325,49.78354978354979,693
14,30,75,25,2.5,3.0,220.00617739888605,1.3219124151371189,24.64580486277517,59.598853868194844,349
10,30,70,25,2.5,2.5,118.40267940934956,1.3146316539433487,17.45124444615201,65.60283687943263,282
14,40,75,15,2.5,3.0,311.89244644300516,1.3067636781763612,23.67950040896213,55.88235294117647,748
18,30,75,15,2.0,3.0,271.38180819514616,1.3048062340416904,22.610796401791262,49.6415770609319,558
18,35,75,25,1.5,2.5,224.95276973326202,1.3004490533823403,19.687801551578264,48.58490566037736,636
18,35,75,20,2.0,3.0,289.8076426939166,1.2970167419240275,19.91605694222333,50.07874015748032,635
18,30,75,25,2.5,4.0,263.46213704673056,1.2674809384794115,31.280708267666956,54.20289855072464,345
14,30,75,15,2.5,3.0,253.95754205996695,1.2670193646869137,25.098567001520905,56.770833333333336,576
18,30,70,15,2.5,2.5,190.8483450577486,1.2618940442779123,21.55792612983801,58.99122807017544,456
10,35,70,25,2.5,2.5,121.66116994708187,1.2566849371966657,18.108134339950386,63.05555555555556,360
18,35,75,25,2.5,4.0,268.92338777022246,1.2355851438595087,29.983422411512954,53.827160493827165,405
18,35,75,25,2.0,3.0,230.46407779181916,1.2318860408018748,22.747161124712214,51.717171717171716,495
14,35,75,25,2.5,2.5,179.58640218667645,1.2106783927728006,21.554429691864467,60.59850374064838,401
18,40,75,25,2.5,4.0,267.657874349251,1.202491731922568,30.780068856000337,51.79372197309418,446
14,40,75,15,2.0,2.5,219.22723000936566,1.16824667618296,20.0187125708132,52.893518518518526,864
14,40,75,25,2.5,3.0,189.3696735460976,1.1622421728249346,21.554429691864488,56.41025641025641,468
14,40,75,20,2.0,2.5,197.3408048912817,1.154460869685654,17.907683471429387,54.18326693227091,753
18,40,75,25,1.5,2.5,182.46622942011751,1.1421263421367047,19.68780155157833,46.618705035971225,695
18,40,70,15,2.5,2.5,190.45814477869058,1.1085614949807368,25.374787416300244,57.02005730659025,698
14,40,75,25,2.0,2.5,149.55498311400854,1.086279722214356,16.131513284922235,54.074074074074076,540
14,30,75,25,2.5,2.5,147.6302934660028,1.0725603884474126,27.367300871014955,60.16483516483516,364
18,40,75,25,2.0,3.0,184.0941940928017,1.0633150417194748,22.865295530055736,49.54296160877514,547
18,30,75,20,2.0,2.5,166.90637033567938,1.0566425191346247,24.017198447926248,51.798561151079134,556
14,30,75,20,2.5,2.5,161.83759679663027,1.0492625259722483,26.976599918120087,58.498023715415016,506
18,40,75,20,2.0,3.0,196.28346536896956,1.034482731533312,20.719415144945476,48.45505617977528,712
18,30,75,25,2.0,2.5,147.92075611331737,1.0304253878766914,22.36765456558157,51.65562913907284,453
18,40,75,20,1.5,2.5,163.95202816793113,1.0021496231428955,19.68780155157832,45.32293986636971,898
18,40,75,15,1.5,2.5,166.87498330451078,0.9924445565625181,21.760800338364874,45.04504504504504,999
18,30,75,20,2.5,3.0,160.8629939299702,0.9771392970402837,30.45100280529432,53.76344086021505,465
14,35,75,20,2.5,2.5,142.89785812931447,0.9748879381336698,27.14018188291474,58.333333333333336,576
18,35,75,25,2.0,2.5,130.91846689905444,0.9235269012425187,21.893335279166543,51.969981238273924,533
18,30,75,25,2.5,3.0,134.5492697338816,0.9170789748691301,33.256145343754156,55.208333333333336,384
14,35,75,15,2.5,2.5,137.22170687707384,0.909955106795924,31.397138319005823,56.21387283236994,692
18,40,75,15,2.0,3.0,156.74534675298779,0.903603789764954,26.35280773580509,47.848101265822784,790
18,35,75,20,2.0,2.5,125.57073333196908,0.8547011677099063,22.297664446171698,50.653120464441216,689
18,35,75,20,2.5,3.0,135.22025996452857,0.8468305711129356,30.451002805294287,52.88966725043783,571
14,40,75,20,2.5,2.5,121.92659079992512,0.8418404049040136,27.189963348461347,56.333830104321905,671
14,30,75,15,2.5,2.5,117.65593308847887,0.8407833006543232,33.622405431697,56.00000000000001,600
18,35,75,25,2.5,3.0,120.39761347709587,0.8323347482339821,32.88937631647866,55.01113585746103,449
18,30,75,15,2.0,2.5,112.99243216489853,0.832021651645887,25.37109421495965,50.332225913621265,602
14,40,75,25,2.5,2.5,101.74571059336894,0.8234779739801924,21.55442969186448,56.76229508196722,488
18,35,75,15,2.0,2.5,118.4212176795866,0.8127282015667148,23.285118976235005,50.39682539682539,756
18,35,75,15,2.5,3.0,124.78428609946374,0.7977047571814377,30.45100280529437,52.72435897435898,624
18,30,75,15,2.5,3.0,112.92105723100828,0.7903775167801245,31.109454831511684,51.976284584980235,506
18,40,75,25,2.5,3.0,109.44520622215208,0.7754281421140917,33.49403817223461,53.65853658536586,492
14,40,75,15,2.5,2.5,111.08876625373772,0.7698574582669504,32.27957544616328,55.172413793103445,783
18,40,75,20,2.5,3.0,88.81573798765233,0.653866947152494,30.036784568081842,51.724137931034484,638
18,40,75,25,2.0,2.5,69.8456178123336,0.6189942806253165,21.804090676651278,49.14383561643836,584
18,40,75,15,2.5,3.0,71.37424802504876,0.5707728371695371,32.284651995680704,51.27840909090909,704
18,40,75,20,2.0,2.5,60.00811810311445,0.5405342379260795,22.602406697726135,48.5006518904824,767
18,30,75,20,2.5,2.5,52.603813793611934,0.5147338571854221,31.919690284360176,54.32595573440644,497
18,30,75,25,2.5,2.5,36.332219846968215,0.4219003656363932,35.922816597649074,53.99515738498789,413
18,35,75,25,2.5,2.5,34.21891381587369,0.40013633124845915,35.438670455375785,54.56431535269709,482
18,35,75,20,2.5,2.5,35.04608186214147,0.3970956675641766,33.03003699432834,53.74592833876222,614
18,40,75,15,2.0,2.5,28.664001036934263,0.35527837663842216,34.381571768479205,47.953216374269005,855
18,40,75,25,2.5,2.5,21.78003149038539,0.31154440383205145,36.93992738762814,53.346080305927345,523
18,35,75,15,2.5,2.5,18.313026084473897,0.2863866332441827,33.0239975094475,53.48148148148149,675
18,30,75,15,2.5,2.5,17.704572003878695,0.2817782438371379,34.621026945320835,52.66055045871559,545
18,40,75,20,2.5,2.5,0.521006431800779,0.15636444919110137,36.23350689823155,51.4792899408284,676
18,40,75,15,2.5,2.5,-14.863015687715396,0.03100071176208181,36.58734576405339,51.26498002663116,751
